,Tiempo [s],Corriente [A],Err corriente [A],Tension [V],Err tension [V],Hora
0,0.0,4.8292732166890984e-09,4.8292732166890984e-09,101.28770199448101,1.5194350573460074,9:44:07
1,1.5898051261901855,4.929407806191117e-09,4.929407806191117e-09,113.08381465279746,1.6963905645051367,
2,2.7746968269348145,5.1734185733512786e-09,5.1734185733512786e-09,122.48305990641772,1.837390289650352,
3,4.022521257400513,4.753095558546433e-09,4.753095558546433e-09,131.79607817469622,1.9770963610832848,
4,5.177881717681885,4.753835800807537e-09,4.753835800807537e-09,141.08668631622783,2.1164663482720427,
5,6.336261987686157,4.813055181695827e-09,4.813055181695827e-09,149.78731408470884,2.2469859529486396,
6,7.493977785110474,4.846904441453567e-09,4.846904441453567e-09,158.46160210221515,2.377110424902143,
7,8.65338397026062,4.7707267833109015e-09,4.7707267833109015e-09,167.82884814763293,2.517630053127026,
8,9.80278491973877,4.693203230148048e-09,4.693203230148048e-09,177.16446200456963,2.65767516123243,
9,10.96310806274414,4.715746971736204e-09,4.715746971736204e-09,185.78157603931646,2.78694195406226,
10,12.1156747341156,4.527456258411844e-09,4.527456258411844e-09,194.66737563326583,2.9202392974956313,
11,13.279028415679932,4.599394347240915e-09,4.599394347240915e-09,203.94957443186075,3.059483150577407,
12,14.45144534111023,4.39414535666218e-09,4.39414535666218e-09,213.09324292793673,3.196648825327168,
13,15.607763528823853,4.592328398384926e-09,4.592328398384926e-09,221.4866874129367,3.322560352493642,
14,16.769125938415527,4.447779273216689e-09,4.447779273216689e-09,230.9447198967595,3.4644418682236497,
15,17.939738750457764,4.637483176312247e-09,4.637483176312247e-09,240.50261903206328,3.6078215750259166,
16,19.09923553466797,4.6783310901749665e-09,4.6783310901749665e-09,248.6907353182278,3.7306529040159937,
17,20.274454355239868,4.391318977119785e-09,4.391318977119785e-09,257.57688626879747,3.8639554962028657,
18,21.43988585472107,4.5323687752355316e-09,4.5323687752355316e-09,267.6985895139367,4.015792913147462,
19,22.61159896850586,4.576110363391656e-09,4.576110363391656e-09,275.92233982811393,4.139158794874999,
20,23.775788068771362,4.58600269179004e-09,4.58600269179004e-09,285.4026754802278,4.2813749186395995,
21,24.940940141677856,4.183310901749663e-09,4.183310901749663e-09,294.35204883055695,4.415625894971268,
22,26.1060471534729,4.278532974427994e-09,4.278532974427994e-09,303.19426108568354,4.548269440549232,
23,27.27938961982727,4.109959623149394e-09,4.109959623149394e-09,312.8069779408102,4.69247139738905,
24,28.447497844696045,4.489367429340511e-09,4.489367429340511e-09,321.4190023390127,4.82166191927003,
25,29.609278202056885,4.522543741588157e-09,4.522543741588157e-09,330.93851434854435,4.964465739401107,
26,30.770954608917236,4.324360699865411e-09,4.324360699865411e-09,339.56363538835444,5.093852597466813,
27,31.931792497634888,3.978061911170929e-09,3.978061911170929e-09,348.90264279498734,5.233948552871597,
28,33.108171224594116,4.194616419919246e-09,4.194616419919246e-09,357.372647229519,5.361008572909382,
29,34.28224277496338,4.4534320323014805e-09,4.4534320323014805e-09,367.0772693632658,5.506589311679709,
30,35.45550346374512,4.290511440107672e-09,4.290511440107672e-09,375.8079362698354,5.637559489038048,
31,36.63081407546997,4.127590847913862e-09,4.127590847913862e-09,384.8097020277975,5.772596466203809,
32,37.813846588134766,4.402624495289368e-09,4.402624495289368e-09,394.2857585261139,5.914748456761899,
33,38.99082803726196,4.200201884253028e-09,4.200201884253028e-09,403.3072389643671,6.050081168381662,
34,40.182538986206055,3.920255720053835e-09,3.920255720053835e-09,412.8215510187975,6.192806913304612,
35,41.37778329849243,4.145962314939434e-09,4.145962314939434e-09,422.9253539650507,6.344375823703907,
36,42.56955313682556,4.432974427994617e-09,4.432974427994617e-09,431.13396793815195,6.4675146968434225,
37,43.77518630027771,4.054239569313593e-09,4.054239569313593e-09,440.4347285176709,6.607036897883206,
38,44.97533583641052,3.762314939434724e-09,3.762314939434724e-09,449.76406941554427,6.746987856473099,
39,46.177032232284546,3.979475100942127e-09,3.979475100942127e-09,459.2117747805696,6.888714533975561,
40,47.38847899436951,3.7234858681022884e-09,3.7234858681022884e-09,468.3597629806456,7.025944998026231,
41,48.59545063972473,4.265814266487214e-09,4.265814266487214e-09,477.745237831519,7.166738217526673,
42,49.813215255737305,4.24535666218035e-09,4.24535666218035e-09,487.71708137868353,7.316327527745388,
43,51.03439974784851,3.887146702557201e-09,3.887146702557201e-09,496.9263892537089,7.45447783584379,
44,52.2553346157074,0.0008215735531628533,0.0008215735531628533,455.2497337710127,7.032720997694652,
45,53.66382598876953,0.0013807010767160162,0.0013807010767160162,452.56456848392406,7.153287094204317,
46,54.875550508499146,0.0014775308882907135,0.0014775308882907135,458.7796769377215,7.275252058088914,
47,56.106385469436646,0.0015739156796769852,0.0015739156796769852,463.62168521240505,7.3769857401721,
48,57.35916519165039,0.001642900605652759,0.001642900605652759,469.77246636822787,7.4898676109221425,
49,58.58410453796387,0.001746098923283984,0.001746098923283984,474.73562423278486,7.596073024954018,
50,59.8293354511261,0.001846284387617766,0.001846284387617766,479.9022717763291,7.704677782080694,
51,61.07987022399902,0.0019335298788694482,0.0019335298788694482,485.0736774174684,7.809457578502879,
52,62.329904317855835,0.0020292981830417225,0.0020292981830417225,490.8565262125316,7.926284645631731,
53,63.596160888671875,0.0021323549798115747,0.0021323549798115747,495.6646100992404,8.031360769705111,
54,64.84246706962585,0.0022112341184387617,0.0022112341184387617,500.8865677007595,8.134757896798027,
55,66.07881593704224,0.002309556998654105,0.002309556998654105,507.3885291616456,8.26372883248176,
56,67.31695556640625,0.0024360571332436073,0.0024360571332436073,511.589479806076,8.368610105983514,
57,68.55930256843567,0.0025394832436069987,0.0025394832436069987,517.1956628099999,8.486669975231065,
58,69.80422306060791,0.0026185137281292056,0.0026185137281292056,521.2624741787342,8.57385384119503,
59,71.04397320747375,0.0027221952220726786,0.0027221952220726786,526.3752135272151,8.685175649486705,
60,72.29079580307007,0.002810956325706595,0.002810956325706595,531.9321231358228,8.797982173911054,
61,73.53967356681824,0.0029220905787348587,0.0029220905787348587,537.1770253531646,8.914314471276475,
62,74.79355525970459,0.003039084993270525,0.003039084993270525,541.4984234992405,9.019499993017515,
63,76.05610251426697,0.00314038001345895,0.00314038001345895,546.3151491687341,9.12655531246175,
64,77.32711172103882,0.00326201467025572,0.00326201467025572,551.0552082368355,9.240131627804384,
65,78.59478807449341,0.0033480978465679676,0.0033480978465679676,557.0559687525316,9.35930880702904,
66,79.89982509613037,0.003475483714670256,0.003475483714670256,560.4631427201265,9.456090153732571,
67,81.17887496948242,0.0035901547779273214,0.0035901547779273214,565.0367956164557,9.565468689002829,
68,82.4553234577179,0.0037067004710632573,0.0037067004710632573,570.2697747269619,9.685388914869227,
69,83.74965906143188,0.0038246911843876174,0.0038246911843876174,575.1829999362026,9.801450617226756,
70,85.05103254318237,0.003899135464333782,0.003899135464333782,580.9365516882278,9.913283219307335,
71,86.32187104225159,0.0040316090174966355,0.0040316090174966355,585.6009506258227,10.031654858625158,
72,87.62821197509766,0.004047905787348587,0.004047905787348587,581.2005830382278,9.974244151305596,
73,88.92347645759583,0.003928855450874832,0.003928855450874832,576.5894994172153,9.861639028548195,
74,90.23511672019958,0.003819113055181696,0.003819113055181696,571.6297833322785,9.747774089291735,
75,91.54193449020386,0.0036933975100942127,0.0036933975100942127,567.3073848854432,9.637324062724907,
76,92.8532063961029,0.003588127725437416,0.003588127725437416,561.5326934963291,9.513738494422673,
77,94.15864849090576,0.003495948519515478,0.003495948519515478,556.7127432351898,9.409099364137965,
78,95.46403002738953,0.003377606729475101,0.003377606729475101,551.9572540982278,9.295840273977907,
79,96.76757717132568,0.0032496271197846567,0.0032496271197846567,546.1657893367088,9.16421143040811,
80,98.10726118087769,0.003154748183041723,0.003154748183041723,540.8270630774684,9.051562458140696,
81,99.41376042366028,0.0030517173620457604,0.0030517173620457604,535.2521381094936,8.932661913211078,
82,100.73078083992004,0.002925663391655451,0.002925663391655451,530.1066236677214,8.811992553339838,
83,102.04728579521179,0.0028195050471063253,0.0028195050471063253,524.9057359886076,8.69793511100966,
84,103.38824772834778,0.002706208075370121,0.002706208075370121,519.1301633830379,8.573174013353078,
85,104.72118639945984,0.002617662382234186,0.002617662382234186,514.113507893038,8.468474479907782,
86,106.04407906532288,0.0025221536339165543,0.0025221536339165543,508.73021389607595,8.356135708520407,
87,107.38507127761841,0.0024234317631224764,0.0024234317631224764,503.4794604617722,8.244845990487065,
88,108.72055864334106,0.002314216218034993,0.002314216218034993,497.0680630567089,8.113115443797025,
89,110.04776763916016,0.0021792272543741586,0.0021792272543741586,491.7470807935443,7.9891153295634645,
90,111.38377952575684,0.0021062753028263798,0.0021062753028263798,486.2161226989874,7.883102218875117,
91,112.71132922172546,0.0019852480484522208,0.0019852480484522208,480.9344728267088,7.765071061861782,
92,114.0459725856781,0.0019038246298788695,0.0019038246298788695,474.886172401519,7.648985336241227,
93,115.37412858009338,0.0017845133243607,0.0017845133243607,468.98110590443036,7.523001908342744,
94,116.70900893211365,0.0016926506056527593,0.0016926506056527593,462.9971589908861,7.404990712737001,
95,118.04679536819458,0.0015848270524899057,0.0015848270524899057,456.6854823513924,7.277362570914647,
96,119.3918023109436,0.0014988628532974428,0.0014988628532974428,451.43648486911394,7.172656302876251,
97,120.73454189300537,0.0013917672947510093,0.0013917672947510093,446.0957805040506,7.060389417774379,
98,122.08485388755798,0.0011257787348586809,0.0011257787348586809,449.34277434860763,7.029802586946383,
99,123.43613958358765,0.0008300518842530283,0.0008300518842530283,484.5742175249367,7.473708303208834,
100,124.79456233978271,5.984387617765814e-09,5.984387617765814e-09,476.3208225835189,7.145370706124766,
101,126.17043018341064,4.651547779273217e-09,4.651547779273217e-09,465.88419265394936,6.98880875495164,
102,127.53052163124084,4.595154777927322e-09,4.595154777927322e-09,455.68762270612655,6.835848268785426,
103,128.89887142181396,3.792597577388964e-09,3.792597577388964e-09,444.3533649438987,6.665820968601054,
104,130.3292372226715,4.322207267833109e-09,4.322207267833109e-09,433.2313829127595,6.498978349592346,
105,131.71107625961304,3.590242261103634e-09,3.590242261103634e-09,422.8194440745696,6.342786927610579,
106,133.10815382003784,4.153701211305518e-09,4.153701211305518e-09,411.85544763802534,6.1783142848226325,
107,134.49738883972168,3.609959623149394e-09,3.609959623149394e-09,401.0636680178988,6.016424848865362,
108,135.89500975608826,3.936473755047106e-09,3.936473755047106e-09,389.99047673868347,5.850314102920275,
109,137.29077553749084,3.282772543741588e-09,3.282772543741588e-09,379.7344562995189,5.696461656709025,
110,138.67236042022705,3.5232166890982504e-09,3.5232166890982504e-09,368.2125000591773,5.5236188923523715,
111,140.0985288619995,3.2940107671601618e-09,3.2940107671601618e-09,357.02641203112654,5.355814439267854,
112,141.51111578941345,3.694616419919246e-09,3.694616419919246e-09,346.83530231762023,5.2029359648749285,
113,142.92718267440796,3.551413189771198e-09,3.551413189771198e-09,336.183975559924,5.0431535753937675,
114,144.3510890007019,3.5810901749663525e-09,3.5810901749663525e-09,324.75016183373424,4.87163300484394,
115,145.74724960327148,3.577523553162853e-09,3.577523553162853e-09,313.4073308368608,4.7014772742230155,
116,147.19376707077026,3.4195827725437417e-09,3.4195827725437417e-09,302.60589071702526,4.539443005474445,
117,148.60023427009583,3.2806191117092866e-09,3.2806191117092866e-09,291.78755720696205,4.37715532034682,
118,150.06509518623352,3.5027590847913863e-09,3.5027590847913863e-09,280.13700586912654,4.202383475061938,
119,151.475079536438,3.4315612382234185e-09,3.4315612382234185e-09,269.9525182672532,4.049604234914407,
120,152.90793681144714,3.017563930013459e-09,3.017563930013459e-09,258.1912581857089,3.873171487199292,
121,154.3410496711731,3.415343203230148e-09,3.415343203230148e-09,246.87682788837972,3.7034418897518537,
122,155.7677342891693,2.9456931359353973e-09,2.9456931359353973e-09,236.35416695548102,3.5455895653400966,
123,157.1809310913086,3.221399730820996e-09,3.221399730820996e-09,224.63481777506328,3.369785683901818,
124,158.65878653526306,3.189636608344549e-09,3.189636608344549e-09,213.77516289465825,3.2068781537927005,
125,160.0760293006897,3.2870121130551816e-09,3.2870121130551816e-09,202.45925003044303,3.0371262491428754,
126,161.4930338859558,2.840578734858681e-09,2.840578734858681e-09,191.64638811469624,2.8749205757882743,
127,162.92758011817932,2.8413189771197847e-09,2.8413189771197847e-09,180.91602790002534,2.713952624114386,
128,164.3608157634735,3.287685060565276e-09,3.287685060565276e-09,169.2095346271519,2.538341634366716,
129,165.79876136779785,2.8320995962314942e-09,2.8320995962314942e-09,158.47245675234177,2.3772728082116195,
130,167.23222994804382,2.6840511440107673e-09,2.6840511440107673e-09,146.78510690107595,2.201948859669712,
131,168.6814045906067,3.384993270524899e-09,3.384993270524899e-09,135.8890963483671,2.038496115293111,
132,170.14091849327087,3.279205921938089e-09,3.279205921938089e-09,124.6250139031519,1.8695216822527807,
133,171.604252576828,2.6099596231493946e-09,2.6099596231493946e-09,113.38140837372151,1.70085430129076,
134,173.08281564712524,2.67207267833109e-09,2.67207267833109e-09,101.71003770126582,1.5257701059672242,
135,174.6024341583252,2.6388963660834456e-09,2.6388963660834456e-09,90.23561147140506,1.3536402863570764,
136,176.0845012664795,2.775706594885599e-09,2.775706594885599e-09,78.37755826887341,1.1757556514175995,
137,177.57964968681335,2.583916554508748e-09,2.583916554508748e-09,66.72363992741772,1.0009332048686217,
138,179.0699644088745,2.864535666218035e-09,2.864535666218035e-09,54.98064797631645,0.8247746553170893,
139,180.56785464286804,2.5782637954239567e-09,2.5782637954239567e-09,43.361088012759495,0.6504676035554041,
140,182.07587432861328,2.767227456258412e-09,2.767227456258412e-09,31.89420844386076,0.47845104220574997,
141,183.5775866508484,2.8018169582772544e-09,2.8018169582772544e-09,20.284056836493672,0.3042851983182419,
142,185.0787808895111,2.6516150740242264e-09,2.6516150740242264e-09,10.062181422481013,0.15094507966096068,
143,186.61298608779907,2.9773889636608343e-09,2.9773889636608343e-09,26.484195611430376,0.39729456983097006,
144,188.12146425247192,2.593741588156124e-09,2.593741588156124e-09,26.52187130367089,0.3978596637509595,
145,189.6263084411621,3.3793405114401074e-09,3.3793405114401074e-09,26.61361052874684,0.39923603453904566,
146,191.15771317481995,3.0232166890982505e-09,3.0232166890982505e-09,24.940464431392407,0.374136807030595,
147,192.668842792511,2.9781292059219383e-09,2.9781292059219383e-09,45.07462712336709,0.6761727832505968,
148,194.1908733844757,2.9294751009421267e-09,2.9294751009421267e-09,56.08224823896203,0.8412999619993214,
149,195.772038936615,3.4224091520861372e-09,3.4224091520861372e-09,68.15154778236709,1.0223536794757393,
150,197.32590508460999,3.0683714670255722e-09,3.0683714670255722e-09,80.42864295616455,1.2065243856082852,
151,198.85129141807556,3.158613728129206e-09,3.158613728129206e-09,91.81266123377216,1.3772979929280236,
152,200.3819179534912,3.1092866756393e-09,3.1092866756393e-09,103.7813471408228,1.5568422673163367,
153,201.9298391342163,2.669919246298789e-09,2.669919246298789e-09,116.04563106208862,1.7408207706578156,
154,203.479106426239,3.1121130551816956e-09,3.1121130551816956e-09,127.82450548020252,1.9175177603056501,
155,204.99665021896362,3.091655450874832e-09,3.091655450874832e-09,139.887497144962,2.098476737781195,
156,206.49944639205933,2.6099596231493946e-09,2.6099596231493946e-09,151.25342806777215,2.2689788861316322,
157,208.0295798778534,3.2848586810228805e-09,3.2848586810228805e-09,163.32196389725314,2.4500211875691096,
158,209.54452514648438,3.0077388963660833e-09,3.0077388963660833e-09,174.16249971310125,2.6126418404955363,
159,211.10993027687073,2.9216689098250337e-09,2.9216689098250337e-09,187.239603680962,2.8088136738450253,
160,212.6259469985962,2.8807537012113054e-09,2.8807537012113054e-09,198.8047464563038,2.982304331209657,
161,214.19921493530273,3.2446837146702557e-09,3.2446837146702557e-09,210.93604835741772,3.164288127802819,
162,215.72501516342163,2.6325706594885598e-09,2.6325706594885598e-09,222.15539933544304,3.332591376491379,
163,217.27404022216797,3.17907133243607e-09,3.17907133243607e-09,234.56449994798734,3.5187425193259023,
164,218.8158402442932,3.0055854643337822e-09,3.0055854643337822e-09,246.86419421484808,3.703252278532159,
165,220.36665558815002,3.081090174966353e-09,3.081090174966353e-09,258.7438860287975,3.881461565277331,
166,221.90238976478577,3.093741588156124e-09,3.093741588156124e-09,270.70139641510127,4.06083820760163,
167,223.4681544303894,3.165006729475101e-09,3.165006729475101e-09,283.16701126331645,4.247837024123359,
168,224.9992160797119,2.806056527590848e-09,2.806056527590848e-09,294.52086917022785,4.418158090478868,
169,226.55419993400574,2.5782637954239567e-09,2.5782637954239567e-09,306.8800017433291,4.603559481682931,
170,228.09523940086365,3.197442799461642e-09,3.197442799461642e-09,318.8729185066329,4.783467396273921,
171,229.6575849056244,3.2347913862718704e-09,3.2347913862718704e-09,331.33238892239234,4.970374031562611,
172,231.2151701450348,3.251749663526245e-09,3.251749663526245e-09,342.2659691391266,5.1343905248683965,
173,232.76744985580444,3.3152086137281295e-09,3.3152086137281295e-09,354.8013870825823,5.3224364677098235,
174,234.35139870643616,3.1353970390309552e-09,3.1353970390309552e-09,367.4193279211646,5.511720296255252,
175,235.90312719345093,2.7362045760430685e-09,2.7362045760430685e-09,379.8468883301266,5.698148146812147,
176,237.49500465393066,2.7905114401076715e-09,2.7905114401076715e-09,391.16728190110126,5.867967301116047,
177,239.06158876419067,2.5267833109017496e-09,2.5267833109017496e-09,403.8137618588354,6.057679231117368,
178,240.6387038230896,2.958344549125168e-09,2.958344549125168e-09,415.69655365216454,6.235935100549767,
179,242.20765376091003,3.2171601615074022e-09,3.2171601615074022e-09,428.1917969905949,6.423378420882062,
180,243.7888684272766,2.992193808882907e-09,2.992193808882907e-09,440.44670615106327,6.607216339642637,
181,245.34721302986145,2.5148048452220728e-09,2.5148048452220728e-09,452.84431935734176,6.793194929706177,
182,246.9185552597046,3.203768506056528e-09,3.203768506056528e-09,464.8951308817468,6.973971348974889,
183,248.52578592300415,2.968236877523553e-09,2.968236877523553e-09,477.08944369060754,7.156900249241771,
184,250.12894892692566,3.193203230148048e-09,3.193203230148048e-09,490.58046245722784,7.359281357960808,
185,251.70457220077515,0.0011025522880215343,0.0011025522880215343,449.54783229189877,7.026156973955127,
186,253.2797248363495,0.0013736067294751009,0.0013736067294751009,451.17373125911394,7.130440583300147,
187,254.87821221351624,0.0015110773216689098,0.0015110773216689098,456.98297710607596,7.258865974116921,
188,256.50243949890137,0.001605835127860027,0.001605835127860027,465.13144410620254,7.409356539061495,
189,258.0910005569458,0.0017392986541049798,0.0017392986541049798,470.03751366303794,7.524230355945761,
190,259.6780061721802,0.001854892934051144,0.001854892934051144,477.7140674836708,7.675026598813048,
191,261.25819873809814,0.0019778095558546436,0.0019778095558546436,484.95908186582284,7.822180694485827,
