,Tiempo [s],Corriente [A],Err corriente [A],Tension [V],Err tension [V],Hora
0,0.0,4.191049798115747e-09,4.191049798115747e-09,298.15170784884805,4.472625225481689,9:31:24
1,1.8497474193572998,4.858882907133244e-09,4.858882907133244e-09,289.8660930362405,4.3483314625529355,
2,3.0113260746002197,4.809555854643338e-09,4.809555854643338e-09,283.99570039088604,4.260268696746564,
3,4.170775651931763,4.7721399730821e-09,4.7721399730821e-09,278.12237724296205,4.1721619726297865,
4,5.32044529914856,4.304576043068641e-09,4.304576043068641e-09,271.47496250437973,4.072442873504113,
5,6.596069574356079,4.227052489905787e-09,4.227052489905787e-09,265.3870592087848,3.9811171872908186,
6,7.753978490829468,4.1043068640646025e-09,4.1043068640646025e-09,259.49434032303793,3.8927194854028313,
7,8.90614938735962,3.892732166890983e-09,3.892732166890983e-09,253.67636792741772,3.805443048477436,
8,10.056503534317017,4.672745625841185e-09,4.672745625841185e-09,247.6617865664177,3.7152174681897137,
9,11.211498022079468,4.55e-09,4.55e-09,241.27569051396205,3.6194185318212067,
10,12.361629247665405,3.844078061911171e-09,3.844078061911171e-09,235.37339113181008,3.530876981282807,
11,13.51221489906311,4.413189771197847e-09,4.413189771197847e-09,230.23058476177215,3.4537289983429478,
12,14.662564992904663,4.024629878869449e-09,4.024629878869449e-09,223.31405999501266,3.3499729516953116,
13,15.817544937133789,3.7044414535666218e-09,3.7044414535666218e-09,217.65516871605064,3.2650828933452405,
14,16.968122243881226,4.114199192462988e-09,4.114199192462988e-09,212.1080344556582,3.1818694836860058,
15,18.118958950042725,4.257335127860027e-09,4.257335127860027e-09,205.89083273232913,3.0886042190376273,
16,19.27208709716797,3.5401749663526246e-09,3.5401749663526246e-09,199.76694404705066,2.9967385673095093,
17,20.4249267578125,3.842664872139973e-09,3.842664872139973e-09,194.59768123648098,2.919193647387437,
18,21.576022624969482,4.2460969044414535e-09,4.2460969044414535e-09,188.37376213806326,2.825827672281783,
19,22.72615122795105,3.5267833109017495e-09,3.5267833109017495e-09,182.06614863200002,2.731205932904849,
20,23.878910303115845,3.887146702557201e-09,3.887146702557201e-09,176.12425214155695,2.6420706171293493,
21,25.031551361083984,4.2411170928667565e-09,4.2411170928667565e-09,169.81658988434177,2.5474483856824475,
22,26.186659336090088,4.194616419919246e-09,4.194616419919246e-09,164.14576548913925,2.462379377643495,
23,27.340984582901,4.090915208613728e-09,4.090915208613728e-09,158.01832505545568,2.370460582286709,
24,28.504666328430176,4.193203230148048e-09,4.193203230148048e-09,152.8652804169747,2.2931589092837705,
25,29.668270349502563,3.4061911170928665e-09,3.4061911170928665e-09,146.01537180767087,2.1904020940799733,
26,30.84131169319153,3.903364737550471e-09,3.903364737550471e-09,140.15581761954428,2.1025020396319625,
27,32.017295837402344,4.08600269179004e-09,4.08600269179004e-09,133.89827959643037,2.0086316921213254,
28,33.19026303291321,3.6741588156123823e-09,3.6741588156123823e-09,128.15411501858227,1.9224624141333788,
29,34.370991945266724,4.049327052489906e-09,4.049327052489906e-09,121.9127674634557,1.828834985495025,
30,35.55067420005798,4.131090174966353e-09,4.131090174966353e-09,115.70776905263291,1.7357527711244054,
31,36.73825812339783,3.2207267833109017e-09,3.2207267833109017e-09,109.55047971367088,1.6433860274618965,
32,37.92365312576294,4.034522207267833e-09,4.034522207267833e-09,103.23772191629114,1.5486874594583875,
33,39.14132285118103,3.975975773889637e-09,3.975975773889637e-09,97.22705100534176,1.4585203535646338,
34,40.35736584663391,3.965410497981157e-09,3.965410497981157e-09,90.7271407528481,1.3610140961027701,
35,41.56824970245361,3.115612382234186e-09,3.115612382234186e-09,84.51256374240508,1.267787983873494,
36,42.78187036514282,3.3236877523553164e-09,3.3236877523553164e-09,78.02306383073419,1.170437942437496,
37,44.00147271156311,3.083176312247645e-09,3.083176312247645e-09,71.78798188837975,1.0769043680717318,
38,45.226356744766235,3.6156123822341854e-09,3.6156123822341854e-09,65.46055368264557,0.9819856640660581,
39,46.451797008514404,3.574024226110363e-09,3.574024226110363e-09,59.204153945987336,0.888132342199657,
40,47.69341516494751,3.4738896366083448e-09,3.4738896366083448e-09,53.124996040088604,0.7969378420189731,
41,48.933539390563965,3.02678331090175e-09,3.02678331090175e-09,46.2006061873038,0.6930637968316505,
42,50.16785740852356,3.4689098250336473e-09,3.4689098250336473e-09,39.91649347174684,0.5987948557031532,
43,51.416022300720215,3.2954239569313593e-09,3.2954239569313593e-09,33.03398462072152,0.49554913551594987,
44,52.65365219116211,3.722812920592194e-09,3.722812920592194e-09,26.797200162329112,0.40199017030957096,
45,53.91961050033569,3.441453566621804e-09,3.441453566621804e-09,20.954588920607595,0.3143441063236824,
46,55.16911864280701,3.3095558546433376e-09,3.3095558546433376e-09,14.569672788215192,0.2185628680999739,
47,56.417993783950806,3.5055854643337818e-09,3.5055854643337818e-09,10.614952783088606,0.15923748688344724,
48,57.68908143043518,3.87792732166891e-09,3.87792732166891e-09,26.353962060012655,0.39534111500893443,
49,58.94721555709839,3.734118438761776e-09,3.734118438761776e-09,26.35165383211392,0.3953064568326835,
50,60.20357275009155,3.404777927321669e-09,3.404777927321669e-09,26.375878741670885,0.395669785388159,
51,61.46174097061157,3.3871467025572008e-09,3.3871467025572008e-09,26.413002292379744,0.3962266781325053,
52,62.721670389175415,3.732705248990579e-09,3.732705248990579e-09,26.467090092670887,0.3970381354228792,
53,63.98478674888611,3.6551144010767157e-09,3.6551144010767157e-09,26.57336475079747,0.3986323622807982,
54,65.25140595436096,3.0013458950201884e-09,3.0013458950201884e-09,21.477027680063294,0.3221812005706222,
55,66.52568221092224,2.9858681022880212e-09,2.9858681022880212e-09,39.94441746782279,0.5992136406198888,
56,67.79647493362427,3.928734858681023e-09,3.928734858681023e-09,44.52547873286076,0.6679351271012832,
57,69.06896901130676,3.633916554508748e-09,3.633916554508748e-09,51.098864876582276,0.7665435407809249,
58,70.3406970500946,2.9943472409152086e-09,2.9943472409152086e-09,58.00775983313924,0.8701849021625168,
59,71.62108063697815,3.3130551816958275e-09,3.3130551816958275e-09,64.78961421646837,0.9719207199973712,
60,72.90219211578369,3.660026917900404e-09,3.660026917900404e-09,70.75546326127849,1.0614155097776674,
61,74.1903874874115,3.1445491251682365e-09,3.1445491251682365e-09,77.92978482656963,1.169038608356467,
62,75.47207379341125,2.971063257065949e-09,2.971063257065949e-09,84.9818892391266,1.2748283829542264,
63,76.76006984710693,3.6853970390309556e-09,3.6853970390309556e-09,91.5438255566962,1.3732652608120528,
64,78.04761981964111,3.056393001345895e-09,3.056393001345895e-09,97.6251789209114,1.4644925328963823,
65,79.3395574092865,3.153701211305518e-09,3.153701211305518e-09,104.57889034825318,1.5688063580154454,
66,80.63257551193237,3.739030955585465e-09,3.739030955585465e-09,111.27037630812659,1.6691866032520983,
67,81.92895269393921,3.711507402422611e-09,3.711507402422611e-09,117.54221376446836,1.7632714935613596,
68,83.23165774345398,3.3977119784656796e-09,3.3977119784656796e-09,125.00956270291138,1.8752903903776084,
69,84.53772830963135,3.02678331090175e-09,3.02678331090175e-09,131.15110418086076,1.9674206120845348,
70,85.81912398338318,3.482301480484522e-09,3.482301480484522e-09,137.8232191188228,2.0675102404014045,
71,87.09833979606628,3.6170255720053838e-09,3.6170255720053838e-09,144.24336362694936,2.1638199460931506,
72,88.39307594299316,3.1847240915208613e-09,3.1847240915208613e-09,151.43930932158227,2.2717674504428995,
73,89.6812527179718,3.2594885598923285e-09,3.2594885598923285e-09,158.23314776918988,2.3736829888771305,
74,90.97267174720764,3.628331090174966e-09,3.628331090174966e-09,164.55364679489873,2.4684979479914224,
75,92.26797747612,3.5218034993270524e-09,3.5218034993270524e-09,171.45762662853164,2.5720656956076065,
76,93.56210231781006,2.9534320323014803e-09,2.9534320323014803e-09,177.70446594807595,2.6657754640662956,
77,94.85832905769348,2.7763795423956932e-09,2.7763795423956932e-09,184.424634504519,2.7665858118453284,
78,96.1438524723053,3.4738896366083448e-09,3.4738896366083448e-09,190.87541879356962,2.8633552755376703,
79,97.4345498085022,2.8074697173620458e-09,2.8074697173620458e-09,198.01168991884813,2.9704075393716183,
80,98.7356333732605,3.1403095558546435e-09,3.1403095558546435e-09,204.92341546537972,3.0740915796823676,
81,100.03882336616516,3.320121130551817e-09,3.320121130551817e-09,211.23354088603799,3.1687508804510793,
82,101.33838200569153,3.3864064602960968e-09,3.3864064602960968e-09,218.6653594459747,3.2802368647658913,
83,102.64283299446106,2.9555181695827722e-09,2.9555181695827722e-09,224.69689433150634,3.370716845574164,
84,103.94651341438293,2.793337819650067e-09,2.793337819650067e-09,231.17835047353165,3.4679462312900062,
85,105.25851798057556,3.0796769851951546e-09,3.0796769851951546e-09,238.5829071752405,3.579023304903928,
86,106.56459450721741,3.000672947510094e-09,3.000672947510094e-09,245.77453960392404,3.6869061839767183,
87,107.87487053871155,3.1423956931359354e-09,3.1423956931359354e-09,251.95379593855696,3.7796022869195247,
88,109.19020557403564,3.410363391655451e-09,3.410363391655451e-09,259.2522051497216,3.889087019945783,
89,110.50472927093506,3.3758411843876175e-09,3.3758411843876175e-09,265.4483462775317,3.982036375244042,
90,111.83071160316467,3.115612382234186e-09,3.115612382234186e-09,272.22157901769623,4.083642729293358,
91,113.15192294120789,2.7841857335127857e-09,2.7841857335127857e-09,279.15602445839244,4.187667446509582,
92,114.47448539733887,2.9484522207267833e-09,2.9484522207267833e-09,286.3760708696709,4.295976622779334,
93,115.80111813545227,3.332099596231494e-09,3.332099596231494e-09,292.5959982776582,4.389282893314515,
94,117.12874126434326,2.739030955585464e-09,2.739030955585464e-09,299.81485319736714,4.497574026993954,
95,118.47439312934875,3.4195827725437417e-09,3.4195827725437417e-09,306.83215276981014,4.602841878668022,
96,119.81003046035767,3.3934724091520857e-09,3.3934724091520857e-09,313.7096163356582,4.706011869184472,
97,121.1524441242218,3.405450874831763e-09,3.405450874831763e-09,320.4648585175316,4.807348404500189,
98,122.48694610595703,3.353297442799462e-09,3.353297442799462e-09,327.7349423605063,4.916408152517831,
99,123.83264255523682,2.6790713324360703e-09,2.6790713324360703e-09,334.3863540605189,5.01618695621399,
100,125.18327784538269,3.3257738896366083e-09,3.3257738896366083e-09,341.55410667267086,5.1237117718853655,
101,126.52971863746643,2.6932032301480487e-09,2.6932032301480487e-09,348.1241793510253,5.222270404420481,
102,127.88831162452698,2.7552489905787347e-09,2.7552489905787347e-09,355.7962190663671,5.337359986047909,
103,129.2423141002655,3.0119784656796772e-09,3.0119784656796772e-09,362.25155847048103,5.434197683535269,
104,130.60406374931335,2.6318304172274562e-09,2.6318304172274562e-09,369.6600285322658,5.545333313555053,
105,131.96585988998413,2.5704576043068642e-09,2.5704576043068642e-09,377.1517238504684,5.657717490809484,
106,133.3328549861908,3.306056527590848e-09,3.306056527590848e-09,383.48668317516456,5.752749453075527,
107,134.70225477218628,0.0013316094885598923,0.0013316094885598923,327.39798907,5.279606644757082,
108,136.04773807525635,0.001462828532974428,0.001462828532974428,328.74618830075946,5.342933318708489,
109,137.41828870773315,0.0015689264468371467,0.0015689264468371467,331.1191820044304,5.413809797211379,
110,138.80192852020264,0.0017200686406460297,0.0017200686406460297,331.2430004683544,5.467961685305887,
111,140.18632555007935,0.0018012976446837147,0.0018012976446837147,336.0011837359493,5.5664505431583935,
112,141.575825214386,0.0019047991251682369,0.0019047991251682369,337.3736757398734,5.623567235895881,
113,142.95976066589355,0.0020151516150740244,0.0020151516150740244,339.3919009174684,5.693178978717004,
114,144.34924411773682,0.0021732445491251685,0.0021732445491251685,341.3898653724051,5.780904838005794,
115,145.72853994369507,0.0022503998654104978,0.0022503998654104978,342.4831229743038,5.825877894322488,
116,147.10533237457275,0.0023602182368775235,0.0023602182368775235,345.7014356264557,5.914443141014108,
117,148.48487401008606,0.0025261338492597574,0.0025261338492597574,345.78323540240507,5.9800575977245165,
118,149.87421989440918,0.002611044279946164,0.002611044279946164,349.7110729862025,6.070149761456464,
119,151.26190876960754,0.00269172732166891,0.00269172732166891,351.24479372253165,6.1242914412486265,
120,152.66508412361145,0.0028345580080753703,0.0028345580080753703,353.36419466556964,6.212192861704039,
121,154.06027579307556,0.0029282266487213994,0.0029282266487213994,354.99260240594936,6.273675623533294,
122,155.46285700798035,0.0030720654104979812,0.0030720654104979812,356.51664394139243,6.354784859855369,
123,156.86907029151917,0.0031731430686406463,0.0031731430686406463,360.02267661443034,6.446863371220639,
124,158.28205156326294,0.0032907193808882906,0.0032907193808882906,360.42086268911396,6.502096467087536,
125,159.6889054775238,0.003413113189771198,0.003413113189771198,362.7955833921519,6.587892963855705,
126,161.1038589477539,0.003531694212651413,0.003531694212651413,364.2836378108861,6.659989061661651,
127,162.51759481430054,0.0036585100269179004,0.0036585100269179004,365.1365599911392,6.727240084701786,
128,163.9429063796997,0.0038058473082099595,0.0038058473082099595,366.2274743896203,6.80750100648356,
129,165.42213892936707,0.003938822611036339,0.003938822611036339,369.5558208348101,6.913228563009661,
130,166.84818124771118,0.004058525168236877,0.004058525168236877,370.5957625496202,6.981544165550842,
131,168.27817225456238,0.004188025235531629,0.004188025235531629,372.7771494303797,7.070580096917105,
132,169.70124864578247,0.004292988829071333,0.004292988829071333,373.613478286076,7.130184473632053,
133,171.1266918182373,0.004422311036339165,0.004422311036339165,376.27166327253167,7.226475355631396,
134,172.55684185028076,0.0045635965679676985,0.0045635965679676985,376.87527627,7.300518742444599,
135,173.97925782203674,0.004660056393001345,0.004660056393001345,379.50508582569626,7.381755696291481,
136,175.40833592414856,0.004811973283983849,0.004811973283983849,380.47737723999995,7.466779526417718,
137,176.84441995620728,0.004952858277254374,0.004952858277254374,381.2535771691139,7.544502965918812,
138,178.30028629302979,0.005091605787348586,0.005091605787348586,383.7249481550633,7.644660161214305,
139,179.73924708366394,0.005199429542395694,0.005199429542395694,384.9745499773417,7.713688984403266,
140,181.18016862869263,0.005308319851951547,0.005308319851951547,387.04442965151895,7.794524291034038,
141,182.62993264198303,0.005445181090174966,0.005445181090174966,387.8736981394937,7.872641560664463,
142,184.0794713497162,0.005571736608344549,0.005571736608344549,391.1798796722784,7.979211609538006,
143,185.52991700172424,0.005698713526244953,0.005698713526244953,391.05829421291133,8.04049634318176,
144,186.98213696479797,0.005836743472409152,0.005836743472409152,393.4948206801266,8.141716731962285,
145,188.43806052207947,0.005981496164199193,0.005981496164199193,394.4810153558227,8.227419840183236,
146,189.91139149665833,0.006095899865410498,0.006095899865410498,396.93070005417724,8.31749383795086,
147,191.37815403938293,0.006232826379542395,0.006232826379542395,397.46548488696203,8.393988466875278,
148,192.8549780845642,0.00636620134589502,0.00636620134589502,399.6358151531646,8.490500308221101,
149,194.32429218292236,0.006494553095558546,0.006494553095558546,400.8031522570886,8.571575202499558,
150,195.79424953460693,0.006641814804845222,0.006641814804845222,402.83700504088614,8.67398750227453,
151,197.27111840248108,0.006783296096904441,0.006783296096904441,403.4973980207595,8.755895927435645,
152,198.75004291534424,0.0068906621803499326,0.0068906621803499326,405.3001097488608,8.835141226012931,
153,200.24751210212708,0.0070354697173620456,0.0070354697173620456,407.08774258759496,8.933934464584832,
154,201.73577117919922,0.007166385598923284,0.007166385598923284,408.5400013493671,9.021391757589173,
155,203.2219376564026,0.007303832436069986,0.007303832436069986,410.8063117482279,9.122968901603908,
156,204.71056199073792,0.007436950201884254,0.007436950201884254,412.1643355411392,9.210847432962968,
157,206.2011513710022,0.007611777927321668,0.007611777927321668,413.1090498143038,9.315965410969797,
158,207.69250440597534,0.007716093539703903,0.007716093539703903,415.44910195278476,9.401453987383618,
159,209.20991349220276,0.007855233512786003,0.007855233512786003,413.3591655554431,9.449718214846241,
160,210.72752952575684,0.007678165545087483,0.007678165545087483,412.3110328472152,9.34133945267128,
161,212.2467803955078,0.007528195154777927,0.007528195154777927,411.82588175468356,9.255056387647253,
162,213.78568053245544,0.007424462987886946,0.007424462987886946,408.5119016263291,9.157607898133705,
163,215.32607889175415,0.00727707200538358,0.00727707200538358,407.0023769136709,9.060112471545132,
164,216.8688132762909,0.007112777927321669,0.007112777927321669,406.09145072582277,8.961713869244015,
165,218.40303349494934,0.006973150740242262,0.006973150740242262,404.5106749074684,8.868061942520072,
166,220.0369107723236,0.006851821668909825,0.006851821668909825,402.8478479443038,8.78317166788325,
167,221.5714979171753,0.006692827052489906,0.006692827052489906,402.28842664886076,8.693254690262577,
168,223.13763546943665,0.006523320390309556,0.006523320390309556,400.75677659189864,8.585768353717818,
169,224.68218350410461,0.006426526379542396,0.006426526379542396,397.9152201526582,8.49890535663957,
170,226.26015162467957,0.006276086339165545,0.006276086339165545,396.36067824772147,8.401533628896576,
171,227.8280155658722,0.006102442597577389,0.006102442597577389,395.02353978481005,8.295662919954019,
172,229.3765721321106,0.005989288492597577,0.005989288492597577,393.1998265031645,8.214415015716373,
173,230.9507384300232,0.005855872880215343,0.005855872880215343,391.7313774424051,8.127903617966863,
174,232.5273892879486,0.005702306123822341,0.005702306123822341,390.04839746354435,8.028840716756964,
175,234.07556557655334,0.00559729064602961,0.00559729064602961,387.3433684327848,7.940633250028843,
176,235.65375328063965,0.005452696164199192,0.005452696164199192,385.577936591519,7.8455934099542635,
177,237.24058413505554,0.005298475841184387,0.005298475841184387,384.1965858964557,7.751429289141659,
178,238.83630657196045,0.0051460994616419915,0.0051460994616419915,381.80040195683546,7.645016284114209,
179,240.41802263259888,0.005028964468371467,0.005028964468371467,380.9928146546836,7.577514073988842,
180,241.9868438243866,0.0048389506056527596,0.0048389506056527596,378.67032065835446,7.455009403124829,
181,243.5892014503479,0.004719011574697173,0.004719011574697173,377.78583251113923,7.386050472247173,
182,245.18414068222046,0.004608292732166891,0.004608292732166891,375.3460438541772,7.30053222683874,
183,246.76459765434265,0.004453894952893674,0.004453894952893674,374.1838462297469,7.2124195560735656,
184,248.3642508983612,0.004299885464333782,0.004299885464333782,371.6567105073418,7.106355938870152,
185,249.95900321006775,0.004162638761776582,0.004162638761776582,369.058770414557,7.007529416756929,
186,251.54018831253052,0.0040617476446837145,0.0040617476446837145,368.8893013431645,6.9593082090820495,
187,253.11223483085632,0.0038995681695827727,0.0038995681695827727,366.3832626402532,6.851444670112707,
188,254.69176816940308,0.0037798656123822338,0.0037798656123822338,364.19996911886074,6.767633869960179,
189,256.2642810344696,0.0036516753028263795,0.0036516753028263795,361.9938818278481,6.680156673373347,
190,257.8499925136566,0.0034730816285329746,0.0034730816285329746,360.05804112987346,6.5750965608765775,
191,259.4770736694336,0.0033348681022880213,0.0033348681022880213,358.64896001987336,6.4958085300704225,
