,Tiempo [s],Corriente tubo [A],Err corriente tubo [A],Tension tubo [V],Err tension tubo [V],"Medicion ""corriente"" [V]","Medicion ""tension"" [V]","Rango ""corriente""","Rango ""tension""",Hora
0,0.0,5.106325706594886e-10,2.556041765807671e-12,26.584917379278487,0.3988071794918104,7.588e-06,0.024313885,0.1,0.1,12:57:20
1,1.3261444568634033,5.477119784656796e-10,2.7416476837160215e-12,26.647994272974685,0.39975342018419524,8.139e-06,0.024371574,0.1,0.1,
2,2.4086549282073975,4.4057873485868104e-10,2.2053779539081308e-12,26.750708149810123,0.4012942331322659,6.547e-06,0.024465512,0.1,0.1,
3,3.4919564723968506,4.006729475100942e-10,2.0056242169478524e-12,27.50197970796203,0.4125642387841725,5.954e-06,0.025152605,0.1,0.1,
4,4.576396226882935,5.23956931359354e-10,2.6227386292183047e-12,40.6595256555443,0.6099439389448716,7.786e-06,0.037186158,0.1,0.1,
5,5.6576149463653564,5.092193808882907e-10,2.5489678560528442e-12,47.384616496392404,0.7108287233082424,7.567e-06,0.043336752,0.1,0.1,
6,6.731047630310059,5.014804845222072e-10,2.5102297788270434e-12,55.78629082108861,0.8368643618738935,7.452e-06,0.051020706,0.1,0.1,
7,7.827852725982666,5.904441453566621e-10,2.9555492407665744e-12,64.79980366026582,0.9720783662104869,8.774e-06,0.059264233,0.1,0.1,
8,8.909746170043945,5.00807537012113e-10,2.506861250372871e-12,73.28450582203799,1.0993595080910779,7.442e-06,0.067024121,0.1,0.1,
9,9.993991136550903,5.225437415881561e-10,2.615664719461964e-12,80.59185727859493,1.2089789392631904,7.765e-06,0.073707236,0.1,0.1,
10,11.072294235229492,5.050471063257066e-10,2.528082979634817e-12,89.56180388162025,1.3435393717467656,7.505e-06,0.081910917,0.1,0.1,
11,12.16436505317688,4.623149394347241e-10,2.314181422866161e-12,97.8521230744557,1.4679045360307588,6.87e-06,0.089493028,0.1,0.1,
12,13.248028993606567,4.0625841184387616e-10,2.033583003050585e-12,106.29889232877215,1.5946166442636835,6.037e-06,0.097218224,0.1,0.1,
13,14.32546591758728,5.022207267833109e-10,2.513935160126679e-12,114.51015080750632,1.717792394694691,7.463e-06,0.10472803,0.1,1.0,
14,15.386655807495117,4.2799461641991924e-10,2.142386471907247e-12,123.14904690911392,1.847386383133182,6.36e-06,0.11262894,0.1,1.0,
15,16.433802366256714,4.861372812920592e-10,2.433427330082131e-12,130.86854046220253,1.9631882386251664,7.224e-06,0.11968899,0.1,1.0,
16,17.491949796676636,6.44414535666218e-10,3.225705223195953e-12,139.22997063994939,2.0886199507554664,9.576e-06,0.12733614,0.1,1.0,
17,18.555728435516357,6.325033647375504e-10,3.16608226945624e-12,147.05113003682277,2.205946902602808,9.399e-06,0.13448917,0.1,1.0,
18,19.61066174507141,5.729475100942127e-10,2.8679675008586564e-12,155.45569828131647,2.3320256899236753,8.514e-06,0.14217577,0.1,1.0,
19,20.659792184829712,4.671601615074024e-10,2.338434827718794e-12,164.18124720318988,2.4629195695878288,6.942e-06,0.15015593,0.1,1.0,
20,21.721102952957153,4.909825033647375e-10,2.4576807349465913e-12,171.83475427070883,2.5777315394587563,7.296e-06,0.15715563,0.1,1.0,
21,22.779226779937744,5.232166890982503e-10,2.6190332479173453e-12,179.98724754791138,2.700028914499948,7.775e-06,0.16461169,0.1,1.0,
22,23.828408241271973,6.212651413189772e-10,3.10982784418209e-12,188.65036001167087,2.8299862163851066,9.232e-06,0.17253475,0.1,1.0,
23,24.8914954662323,5.897711978465679e-10,2.9521807123082634e-12,196.40840835929112,2.9463664209574296,8.764e-06,0.17963006,0.1,1.0,
24,25.94658374786377,4.798115746971736e-10,2.401763162623616e-12,204.86933144974685,3.073290588641333,7.13e-06,0.1873682,0.1,1.0,
25,27.003503799438477,5.06393001345895e-10,2.5348200365436963e-12,213.25739893183547,3.1991218635509036,7.525e-06,0.19503971,0.1,1.0,
26,28.05923557281494,5.218034993270526e-10,2.6119593381610863e-12,221.11403891701266,3.316981073698217,7.754e-06,0.20222519,0.1,1.0,
27,29.11290216445923,5.141318977119785e-10,2.573558113772715e-12,228.85949088430382,3.433172322473447,7.64e-06,0.20930898,0.1,1.0,
28,30.16426658630371,5.344549125168237e-10,2.6752876731272824e-12,237.73943766116454,3.566382386869157,7.942e-06,0.21743035,0.1,1.0,
29,31.225163459777832,5.071332436069987e-10,2.538525417843646e-12,245.7437317010886,3.6864565788601733,7.536e-06,0.22475087,0.1,1.0,
30,32.2774384021759,4.896366083445491e-10,2.450943678039574e-12,253.46483368362027,3.802282545899183,7.276e-06,0.23181239,0.1,1.0,
31,33.33517384529114,5.204576043068641e-10,2.6052222812505077e-12,262.1111305765063,3.931987578673293,7.734e-06,0.23972007,0.1,1.0,
32,34.397316694259644,5.330417227456258e-10,2.6682137633698274e-12,270.3541799530506,4.05564340155435,7.921e-06,0.24725895,0.1,1.0,
33,35.447267293930054,6.080080753701212e-10,3.043467833536881e-12,278.67331846094936,4.180440668352049,9.035e-06,0.25486742,0.1,1.0,
34,36.50981569290161,5.61036339165545e-10,2.8083445471623383e-12,287.1588312952785,4.30773372630302,8.337e-06,0.26262805,0.1,1.0,
35,37.605016469955444,5.050471063257066e-10,2.528082979634817e-12,295.2366244495569,4.428910488492006,7.505e-06,0.27001579,0.1,1.0,
36,38.661959648132324,5.281292059219381e-10,2.6436235056426788e-12,303.75393246212656,4.556680528611334,7.848e-06,0.2778055,0.1,1.0,
37,39.716102600097656,5.168909825033647e-10,2.5873690804381664e-12,311.6874064171013,4.67569233631609,7.681e-06,0.28506125,0.1,1.0,
38,40.77317452430725,5.302153432032301e-10,2.6540659438553586e-12,319.8813946974557,4.7986121829284345,7.879e-06,0.29255526,0.1,1.0,
39,41.831589698791504,5.61036339165545e-10,2.8083445471623383e-12,328.4357799607215,4.92693842887063,8.337e-06,0.30037888,0.1,1.0,
40,42.88232111930847,5.379542395693136e-10,2.692804021098743e-12,336.39921339043036,5.04639966269,7.994e-06,0.30766203,0.1,1.0,
41,43.93997669219971,4.650740242261104e-10,2.3279923895180374e-12,344.51533064317715,5.168151329452607,6.911e-06,0.31508482,0.1,1.0,
42,44.99946594238281,5.288021534320323e-10,2.6469920340983467e-12,353.06945300022784,5.296473638815696,7.858e-06,0.3229082,0.1,1.0,
43,46.05130863189697,5.666218034993271e-10,2.8363033333578424e-12,361.0070592973418,5.415547447641373,8.42e-06,0.33016773,0.1,1.0,
44,47.10254979133606,5.435397039030956e-10,2.720762807285758e-12,369.2974645771772,5.539913659026953,8.077e-06,0.33774992,0.1,1.0,
45,48.155205726623535,4.812247644683715e-10,2.4088370723746442e-12,376.9526895706456,5.6547513806862,7.151e-06,0.34475119,0.1,1.0,
46,49.21874737739563,5.204576043068641e-10,2.6052222812505077e-12,385.7425176211899,5.786609558207221,7.734e-06,0.35279014,0.1,1.0,
47,50.273027420043945,5.120457604306864e-10,2.5631156755626634e-12,367.3632205541645,5.510897626508223,7.609e-06,0.33598091,0.1,1.0,
48,51.32854342460632,0.0005804363795423957,2.9053777495789727e-06,374.0407269286076,5.740458096849907,8.6252846,0.34997644,10.0,1.0,
49,52.29464554786682,0.000606147597577389,3.0340754043533525e-06,379.2924824874684,5.824972350248022,9.0073533,0.35512899,10.0,1.0,
50,53.2613308429718,0.0006685602288021534,3.3464822011061656e-06,385.3455255244304,5.929688308568822,9.934805,0.36151317,10.0,1.0,
51,54.2251296043396,0.00070609333781965,3.5344108267173383e-06,390.78197222405066,6.019608476953861,10.492547,0.3669953,100.0,1.0,
52,55.25665640830994,0.0007547521534320323,3.7779767060231008e-06,397.4208969216456,6.130047401769272,11.215617,0.37372839,100.0,1.0,
53,56.33900046348572,0.0008060187752355316,4.034596183120027e-06,403.3463184206329,6.2303642338118586,11.977439,0.37984437,100.0,1.0,
54,57.409801959991455,0.0008297688425302827,4.153479184101766e-06,409.7103546692406,6.331126881902267,12.330365,0.38598753,100.0,1.0,
55,58.45291590690613,0.0008999377523553162,4.504715686806777e-06,415.5586004655696,6.434499648789919,13.373075,0.39228982,100.0,1.0,
56,59.50966238975525,0.0009756720726783311,4.8838103295955195e-06,420.10669239417723,6.519609149664441,14.498487,0.39747866,100.0,1.0,
57,60.55358099937439,0.0010292308209959623,5.151903242756774e-06,426.1569137148101,6.622309088865583,15.29437,0.40373993,100.0,1.0,
58,61.602765798568726,0.0010593264468371467,5.302549481860876e-06,432.5555674203798,6.725005581984525,15.741591,0.41000099,100.0,1.0,
59,62.65434169769287,0.0011261481830417228,5.637031419626406e-06,438.6633766483545,6.831525972286821,16.734562,0.41649518,100.0,1.0,
60,63.70002222061157,0.001164791386271871,5.830463291230514e-06,445.47070529658225,6.942258500224023,17.3088,0.42324617,100.0,1.0,
61,64.74909377098083,0.0011902766487213998,5.958031960540213e-06,451.74423789949367,7.042050289777852,17.687511,0.42933014,100.0,1.0,
62,65.7960250377655,0.001272080148048452,6.367506399922409e-06,455.9824548827848,7.123864219145297,18.903111,0.43431806,100.0,1.0,
63,66.84251165390015,0.0013337874831763122,6.676387763985204e-06,460.81104320506324,7.210054638907999,19.820082,0.4395728,100.0,1.0,
64,67.89221358299255,0.0013702389636608345,6.858848779208729e-06,465.95833888126583,7.295396067772962,20.361751,0.44477578,100.0,1.0,
65,68.93964219093323,0.0014371744952893675,7.193900329739144e-06,472.75522669202536,7.4122788470386665,21.356413,0.45190173,100.0,1.0,
66,69.99407362937927,0.0014746386271870793,7.381430258555809e-06,478.6927015930379,7.50969966895491,21.91313,0.45784115,100.0,1.0,
67,71.03450083732605,0.001543507267833109,7.726158152246553e-06,483.14683559810123,7.5918692022503445,22.936518,0.46285075,100.0,1.0,
68,72.08560061454773,0.0015818053835800808,7.917862658825034e-06,488.74791971075945,7.684429661361391,23.505628,0.46849385,100.0,1.0,
69,73.13667058944702,0.0016542895020188425,8.280688137025688e-06,494.96120424481006,7.79379455962579,24.582742,0.47516146,100.0,1.0,
70,74.18554091453552,0.0017212693135935397,8.615961334628426e-06,500.3975115081012,7.890276838480562,25.578062,0.48104366,100.0,1.0,
71,75.2282829284668,0.0017938592866756395,8.979316677334797e-06,505.1635556696202,7.9779549589460865,26.656749,0.4863891,100.0,1.0,
72,76.28367805480957,0.001831005720053836,9.165256338935007e-06,510.44735771177216,8.065499068223401,27.208745,0.49172637,100.0,1.0,
73,77.3254177570343,0.0019028242934051144,9.524750374057765e-06,516.5076804956961,8.17242099151712,28.275969,0.49824504,100.0,1.0,
74,78.38010859489441,0.0019534948183041723,9.778386036919708e-06,521.0818078321519,8.25233387975415,29.028933,0.50311706,100.0,1.0,
75,79.42394852638245,0.0020281329744279947,1.0151993735694715e-05,526.3289764865823,8.347686033689111,30.138056,0.50893036,100.0,1.0,
76,80.47939276695251,0.002058448855989233,1.0303742483716304e-05,532.3412280579746,8.44463512178482,30.58855,0.51484102,100.0,1.0,
77,81.51939225196838,0.0021399162180349932,1.0711534359076853e-05,537.19400243,8.535593234301754,31.799155,0.52038643,100.0,1.0,
78,82.56979179382324,0.00220338001345895,1.1029207835958268e-05,542.4912446093672,8.62920558335795,32.742227,0.52609366,100.0,1.0,
79,83.62208700180054,0.0022747384253028265,1.138639849314709e-05,547.6795045353165,8.722942919798967,33.802613,0.53180851,100.0,1.0,
80,84.66894817352295,0.0023410721399730818,1.171843759722193e-05,552.5940944762026,8.811454775122911,34.788332,0.53720478,100.0,1.0,
81,85.72056841850281,0.0023818740915208616,1.192267526887617e-05,558.4331269730379,8.908142902140652,35.394649,0.54309953,100.0,1.0,
82,86.7674355506897,0.0024571667563930014,1.2299559167385822e-05,563.7189637355697,9.004221027621384,36.513498,0.54895709,100.0,1.0,
83,87.81505918502808,0.0025229471063257067,1.2628828356755961e-05,569.5942964973417,9.107021844893277,37.490994,0.55522451,100.0,1.0,
84,88.86620855331421,0.002572095020188425,1.2874842459346873e-05,574.463843463038,9.191026971463632,38.221332,0.56034602,100.0,1.0,
85,89.91738867759705,0.0026608407133243608,1.331906664588365e-05,579.2224027496202,9.282194216587348,39.540093,0.56590418,100.0,1.0,
86,90.96605157852173,0.0027118837819650066,1.3574567108430043e-05,584.3464875944304,9.370440187298083,40.298593,0.57128424,100.0,1.0,
87,92.01633191108704,0.002805926917900404,1.4045308099728393e-05,589.0356208240507,9.461746853894926,41.696074,0.5768509,100.0,1.0,
88,93.06213784217834,0.002883051480484522,1.4431361719518782e-05,594.2160789926583,9.556652535788356,42.842145,0.58263698,100.0,1.0,
89,94.11209893226624,0.002940491049798116,1.4718880415375602e-05,598.5679551477216,9.634740329388778,43.695697,0.58739773,100.0,1.0,
90,95.15743064880371,0.002993408882907133,1.4983765172432318e-05,605.4491647583545,9.749763239123812,44.482056,0.59441029,100.0,1.0,
91,96.208664894104,0.003092363795423957,1.547909248312526e-05,608.412955256329,9.816282581037978,45.952526,0.59846575,100.0,1.0,
92,97.24813175201416,0.0031570410497981155,1.58028400329673e-05,613.7927915036709,9.911404445344107,46.91363,0.60426501,100.0,1.0,
93,98.30574059486389,0.0032004390982503365,1.6020072690572914e-05,618.1856728603798,9.986977255257198,47.558525,0.60887243,100.0,1.0,
94,99.34885144233704,0.0032735938088829073,1.638625487557551e-05,622.8815476358229,10.073728641699939,48.645604,0.61416137,100.0,1.0,
95,100.39594793319702,0.003321851682368775,1.662781380464284e-05,618.7197832584809,10.022054652318046,49.362716,0.61101098,100.0,1.0,
96,101.44323253631592,0.003258588492597577,1.631114447657995e-05,613.8409802586076,9.934764119892773,48.422625,0.60568917,100.0,1.0,
97,102.49874329566956,0.003167406729475101,1.5854726332568978e-05,610.2663792010126,9.86081464977076,47.067664,0.60118072,100.0,1.0,
98,103.54480481147766,0.0031076528263795423,1.5555623040262014e-05,604.9597560894937,9.767888577094116,46.179721,0.59551533,100.0,1.0,
99,104.59642815589905,0.003031771467025572,1.5175792380979314e-05,601.0072838249366,9.691681317314705,45.052124,0.59086923,100.0,1.0,
100,105.63879895210266,0.0029688192462987884,1.4860679635167482e-05,594.6394203089873,9.582122377823005,44.116654,0.58418979,100.0,1.0,
101,106.69077968597412,0.0028701376850605656,1.4366720607769024e-05,590.9907591483543,9.505390073921554,42.650246,0.57951168,100.0,1.0,
102,107.74126148223877,0.0028180011440107674,1.4105746675195052e-05,584.7878890667089,9.40071725071508,41.875497,0.57313013,100.0,1.0,
103,108.78966045379639,0.002755441655450875,1.3792599783963868e-05,580.1873098716455,9.317757283875741,40.945863,0.56807234,100.0,1.0,
104,109.83623504638672,0.0026785407133243606,1.3407665515573667e-05,574.7464254364556,9.21899473883769,39.803115,0.56205112,100.0,1.0,
105,110.87778496742249,0.0026138953566621805,1.3084077632467616e-05,570.1284700013924,9.135309129155159,38.842485,0.55694909,100.0,1.0,
106,111.92975664138794,0.0025514520188425305,1.2771512143739203e-05,564.6151178394937,9.038682344298305,37.914577,0.55105808,100.0,1.0,
107,112.97923827171326,0.0024801034320323014,1.2414370666599865e-05,559.3702156739241,8.944097494748275,36.854337,0.54529156,100.0,1.0,
108,114.02967691421509,0.0024297989232839835,1.2162567129005936e-05,554.2960912932912,8.856765630729287,36.106812,0.53996723,100.0,1.0,
109,115.07085990905762,0.002367908277254374,1.1852768186485694e-05,548.7416037049368,8.759644969483018,35.187117,0.53404611,100.0,1.0,
110,116.12210965156555,0.0022797547106325707,1.1411507940054317e-05,543.8329993522784,8.666358861231393,33.877155,0.52835877,100.0,1.0,
111,117.1741886138916,0.00224398001345895,1.1232434621800904e-05,538.0882585420253,8.572205891736907,33.345543,0.52261858,100.0,1.0,
112,118.21818447113037,0.002185978532974428,1.0942103231333322e-05,532.7952959683545,8.47987539174812,32.483641,0.5169895,100.0,1.0,
113,119.27308654785156,0.0021356595558546434,1.0690227271063788e-05,528.7505869056962,8.407982790996885,31.735901,0.51260645,100.0,1.0,
114,120.31441831588745,0.0020461738223418575,1.0242298748882157e-05,522.781713031519,8.298494379788478,30.406143,0.50593131,100.0,1.0,
115,121.36113142967224,0.001969308075370121,9.857540652860993e-06,517.0766856355697,8.195777214166531,29.263918,0.49966899,100.0,1.0,
116,122.4124026298523,0.0019307617765814268,9.66459384475862e-06,511.45035802493675,8.102782746912496,28.69112,0.49399943,100.0,1.0,
117,123.46077942848206,0.0018544081426648722,9.282399174604267e-06,506.85862482962034,8.016880514966484,27.556505,0.48876226,100.0,1.0,
118,124.51319336891174,0.001766579205921938,8.842763890903704e-06,501.5735043597468,7.918018571706065,26.251367,0.48273498,100.0,1.0,
119,125.55482816696167,0.0017513409152086139,8.766487318406056e-06,495.5707183077215,7.824572548478298,26.024926,0.47703789,100.0,1.0,
120,126.60361647605896,0.0016743075370121133,8.380890129896818e-06,491.5969427892406,7.747788910170597,24.88021,0.47235665,100.0,1.0,
121,127.65434122085571,0.001633549730820996,8.176873431615588e-06,485.4262696456962,7.646135609191551,24.274549,0.46615919,100.0,1.0,
122,128.70580911636353,0.0015426151413189771,7.721692536383696e-06,479.4818670311392,7.5366913215209355,22.923261,0.45948674,100.0,1.0,
123,129.7460741996765,0.0014954235531628533,7.485470990083732e-06,474.1116415935443,7.445611507421948,22.221994,0.45393391,100.0,1.0,
124,130.79398322105408,0.001430978465679677,7.162885571547933e-06,468.30906730658234,7.3441998120382825,21.26434,0.44775118,100.0,1.0,
125,131.84190011024475,0.0013745111036339167,6.880233342642208e-06,463.9568272087342,7.2663232834964715,20.425235,0.44300331,100.0,1.0,
126,132.89244484901428,0.0013284043741588157,6.649442149614112e-06,456.86163079987335,7.149608630776089,19.740089,0.43588761,100.0,1.0,
127,133.9439239501953,0.0012797244952893673,6.405770836366652e-06,450.9697054200001,7.050370912768332,19.016706,0.42983742,100.0,1.0,
128,134.99288630485535,0.0012256018842530284,6.134855459954672e-06,446.6756054887342,6.97388924585189,18.212444,0.42517459,100.0,1.0,
129,136.04156613349915,0.0012003248990578735,6.008329340324051e-06,440.8628440498734,6.881056015908278,17.836828,0.41951486,100.0,1.0,
130,137.0925154685974,0.0011268685060565277,5.640637058322644e-06,434.63229876898725,6.771215448490841,16.745266,0.41281825,100.0,1.0,
131,138.13977527618408,0.0010527627860026918,5.269694514009952e-06,428.994559144557,6.670122944098367,15.644055,0.40665498,100.0,1.0,
132,139.19150710105896,0.0010302611036339165,5.157060410959259e-06,422.55650345708864,6.568528201579507,15.30968,0.40046109,100.0,1.0,
133,140.2342174053192,0.0009725488559892328,4.8681768003044964e-06,418.4354624462025,6.49384243506958,14.452076,0.39590775,100.0,1.0,
134,141.2847011089325,0.0009173938761776581,4.592093813350756e-06,410.2036615193671,6.358060305330305,13.632473,0.38762957,100.0,1.0,
135,142.33549547195435,0.0008680145356662179,4.344921284799793e-06,404.8363257386076,6.2665361505930885,12.898696,0.38204965,100.0,1.0,
136,143.37566089630127,0.0008131117765814267,4.070100810349183e-06,399.1140667562026,6.1684564432705455,12.082841,0.37607006,100.0,1.0,
137,144.42568802833557,0.0007625234185733513,3.816876440914756e-06,392.28744113063294,6.054771644723601,11.331098,0.36913908,100.0,1.0,
138,145.48181653022766,0.0007323311574697174,3.665746485707534e-06,387.5047125393671,5.976294462619636,10.882441,0.36435459,100.0,1.0,
139,146.54717469215393,0.0006708839165545087,3.3581670455573855e-06,380.7606591449367,5.8614277057937345,9.969335,0.35735155,100.0,1.0,
140,147.63855075836182,0.0006433346433378196,3.2202153830521955e-06,375.85651916531646,5.781718368349787,9.5599528,0.35249194,10.0,1.0,
141,148.61303901672363,0.0005896585531628533,2.9515393944788637e-06,368.21850393392407,5.655173423086906,8.7623261,0.34477692,10.0,1.0,
142,149.57645750045776,0.0005474221265141318,2.7401247097158762e-06,363.26114444518987,5.5713917010031615,8.1346928,0.33966903,10.0,1.0,
143,150.5448989868164,0.0005275283176312248,2.6405461310474014e-06,358.8105137464557,5.500192106472336,7.8390708,0.33532823,10.0,1.0,
144,151.51174640655518,0.0004686529273216689,2.345845014731032e-06,352.2206054048101,5.388211027721091,6.9641825,0.32850112,10.0,1.0,
145,152.46617126464844,0.0003993427590847914,1.9989125554456125e-06,346.9483535988608,5.2936703064943,5.9342334,0.32273729,10.0,1.0,
146,153.43048977851868,0.0003620227658142665,1.812107107194376e-06,342.53631114367084,5.2191649694126365,5.3796583,0.31819495,10.0,1.0,
147,154.6260986328125,0.0003339750134589502,1.6717139159846491e-06,346.25846425,5.2687494632035685,4.9628687,0.32121795,10.0,1.0,
