,Tiempo [s],Corriente tubo [A],Err corriente tubo [A],Tension tubo [V],Err tension tubo [V],"Medicion ""corriente"" [V]","Medicion ""tension"" [V]","Rango ""corriente""","Rango ""tension""",Hora
0,0.0,4.755720053835801e-10,2.380541433371742e-12,26.58144524579747,0.3987550853241352,7.067e-06,0.024310709,0.1,0.1,13:02:25
1,1.321117877960205,3.2987886944818304e-10,1.6512550249747717e-12,26.64704624756962,0.3997391500564001,4.902e-06,0.024370704,0.1,0.1,
2,2.406255006790161,1.9259757738896364e-10,9.640752292670697e-13,26.75639426092405,0.40137947664278495,2.862e-06,0.024470709,0.1,0.1,
3,3.492410659790039,1.4777927321668908e-10,7.397312419552117e-13,27.538286700873417,0.41310883278768373,2.196e-06,0.025185807,0.1,0.1,
4,4.574236154556274,2.5773889636608343e-10,1.2901487777971448e-12,41.51125716688609,0.622720919299284,3.83e-06,0.037965126,0.1,0.1,
5,5.6577842235565186,4.728129205921938e-10,2.3667304667167525e-12,46.50274321105063,0.6975995111222895,7.026e-06,0.042530213,0.1,0.1,
6,6.740934133529663,5.078061911170929e-10,2.541893946298186e-12,56.35929621093671,0.8454601619794331,7.546e-06,0.051544762,0.1,0.1,
7,7.816793441772461,5.477119784656796e-10,2.7416476837160215e-12,64.86083160546835,0.9729938523171064,8.139e-06,0.059320047,0.1,0.1,
8,8.90708589553833,5.561238223418574e-10,2.783754289425741e-12,72.09415099,1.0815027066929497,8.264e-06,0.065935454,0.1,0.1,
9,9.988799810409546,5.645356662180351e-10,2.825860895140019e-12,80.95644710592406,1.2144482527834852,8.389e-06,0.074040681,0.1,0.1,
10,11.071524858474731,4.804845222072678e-10,2.4051316910764616e-12,89.87951932948103,1.3483054960156742,7.14e-06,0.082201491,0.1,0.1,
11,12.15207576751709,5.071332436069987e-10,2.538525417843646e-12,97.91626592308862,1.4688667691077417,7.536e-06,0.089551692,0.1,0.1,
12,13.236191511154175,3.8593539703903094e-10,1.9318534440044068e-12,106.33956948593672,1.595226848050161,5.735e-06,0.097255426,0.1,0.1,
13,14.317596912384033,3.2362045760430684e-10,1.6199277105377156e-12,114.95346361036708,1.7244425889979422,4.809e-06,0.10513347,0.1,1.0,
14,15.376960754394531,3.1312247644683713e-10,1.5673786669950355e-12,122.80836546649367,1.8422757193086778,4.653e-06,0.11231736,0.1,1.0,
15,16.44139528274536,3.7960969044414533e-10,1.9001892766348653e-12,131.04443811773416,1.9658268947951645,5.641e-06,0.11984986,0.1,1.0,
16,17.498576164245605,2.549798115746972e-10,1.2763378113067867e-12,139.07295252581014,2.086264400232849,3.789e-06,0.12719253,0.1,1.0,
17,18.558430910110474,3.446164199192463e-10,1.7250257977279907e-12,146.78111793444305,2.201896326726753,5.121e-06,0.13424222,0.1,1.0,
18,19.609707355499268,5.911843876177658e-10,2.959254622070745e-12,155.92001247044306,2.3389909745795445,8.785e-06,0.14260042,0.1,1.0,
19,20.67189621925354,7.088156123822342e-10,3.548073396899843e-12,164.39773781472152,2.4661672473503677,1.0533e-05,0.15035393,0.1,1.0,
20,21.723631381988525,5.050471063257066e-10,2.528082979634817e-12,171.93275595753164,2.579201687730758,7.505e-06,0.15724526,0.1,1.0,
21,22.782151222229004,2.4165545087483177e-10,1.2096409488183598e-12,180.46563831520254,2.7072052982103822,3.591e-06,0.16504921,0.1,1.0,
22,23.83195924758911,3.1870794078061914e-10,1.5953374529777798e-12,188.6077107761519,2.829346358256235,4.736e-06,0.17249574,0.1,1.0,
23,24.88977861404419,5.435397039030956e-10,2.720762807285758e-12,196.67362537844306,2.9503449902406698,8.077e-06,0.17987262,0.1,1.0,
24,25.95292067527771,6.99057873485868e-10,3.499229734208183e-12,204.84325048098734,3.0728993910926636,1.0388e-05,0.18734435,0.1,1.0,
25,27.00655198097229,3.775235531628533e-10,1.889746838461561e-12,213.66659675772152,3.2052603025703603,5.61e-06,0.19541395,0.1,1.0,
26,28.06536555290222,2.89300134589502e-10,1.448132760648865e-12,221.37777167327846,3.3209373356998553,4.299e-06,0.20246639,0.1,1.0,
27,29.11580777168274,5.680349932705249e-10,2.843377243118454e-12,228.61063109089875,3.429439133287821,8.441e-06,0.20908138,0.1,1.0,
28,30.170360565185547,6.20592193808883e-10,3.106459315722742e-12,237.59739212939243,3.564251549403847,9.222e-06,0.21730044,0.1,1.0,
29,31.22478985786438,3.417900403768506e-10,1.7108779782910662e-12,245.36084557302533,3.6807127818961045,5.079e-06,0.22440069,0.1,1.0,
30,32.28271794319153,3.1729475100942123e-10,1.5882635432702703e-12,254.49354453031648,3.817714428067514,4.715e-06,0.23275322,0.1,1.0,
31,33.34495711326599,5.806864064602961e-10,2.9067055781234907e-12,262.1727758589747,3.932912346714969,8.629e-06,0.23977645,0.1,1.0,
32,34.40044283866882,6.458277254374158e-10,3.2327791329620785e-12,270.811976043,4.062510927829084,9.597e-06,0.24767764,0.1,1.0,
33,35.44909882545471,3.838492597577389e-10,1.921411005828474e-12,277.94549671156966,4.1695224021771295,5.704e-06,0.25420177,0.1,1.0,
34,36.50442147254944,3.215343203230148e-10,1.6094852723948394e-12,286.8819518901013,4.303580143273689,4.778e-06,0.26237482,0.1,1.0,
35,37.60644316673279,4.349932705248991e-10,2.1774191677767557e-12,295.38837917929106,4.431186979384242,6.464e-06,0.27015458,0.1,1.0,
36,38.66598391532898,7.116419919246299e-10,3.562221216438675e-12,303.6137224038608,4.5545772471997665,1.0575e-05,0.27767727,0.1,1.0,
37,39.71672987937927,5.484522207267833e-10,2.7453530650182887e-12,311.5252430431646,4.6732596944526446,8.15e-06,0.28491294,0.1,1.0,
38,40.77184534072876,4.006729475100942e-10,2.0056242169478524e-12,320.01462802941774,4.800610816945432,5.954e-06,0.29267711,0.1,1.0,
39,41.82574486732483,4.46164199192463e-10,2.233336740043549e-12,328.29579301746844,4.924838427941652,6.63e-06,0.30025085,0.1,1.0,
40,42.879782915115356,6.199192462987887e-10,3.103090787263415e-12,336.66007675243037,5.05031295036973,9.212e-06,0.30790061,0.1,1.0,
41,43.940755128860474,6.275908479138628e-10,3.141492011700973e-12,344.6813836551392,5.170642363906126,9.326e-06,0.31523669,0.1,1.0,
42,44.99226188659668,4.5881561238223416e-10,2.29666507491867e-12,352.7216637576962,5.291256359307067,6.818e-06,0.32259012,0.1,1.0,
43,46.05587291717529,4.1742934051144007e-10,2.089500575271315e-12,361.21760759332915,5.418705896277507,6.203e-06,0.33036029,0.1,1.0,
44,47.10687494277954,5.673620457604307e-10,2.8400087146610043e-12,369.16823467874684,5.537975057841326,8.431e-06,0.33763173,0.1,1.0,
45,48.16158103942871,5.764468371467026e-10,2.8854838488388486e-12,377.39584522779745,5.66139927865164,8.566e-06,0.34515649,0.1,1.0,
46,49.220804929733276,4.0558546433378197e-10,2.030214474604196e-12,386.08721527439246,5.791780418887224,6.027e-06,0.35310539,0.1,1.0,
47,50.27755546569824,3.9925975773889636e-10,1.9985503072118594e-12,393.8530592261139,5.908277572663824,5.933e-06,0.36020783,0.1,1.0,
48,51.332167625427246,5.890982503364737e-10,2.948812183849976e-12,401.99421155081006,6.030404854682806,8.754e-06,0.36765352,0.1,1.0,
49,52.38501834869385,6.563257065948855e-10,3.285328176941544e-12,405.8797457187722,6.088692633338037,9.753e-06,0.37120713,0.1,1.0,
50,53.439152002334595,0.0007355329744279947,3.68177345539441e-06,383.8309759215189,5.921897664724276,10.93002,0.3610382,100.0,1.0,
51,54.49584698677063,0.0007785983849259758,3.897341065160381e-06,389.11637183835444,6.010785130991206,11.569972,0.36645737,100.0,1.0,
52,55.563087463378906,0.0008461179676985196,4.2353161338377206e-06,395.3358350713924,6.119136029989039,12.573313,0.37306316,100.0,1.0,
53,56.6098690032959,0.0008853666218034994,4.431778641778717e-06,400.3603684875949,6.203259415388175,13.156548,0.37819188,100.0,1.0,
54,57.65894412994385,0.0009254954912516824,4.6326471431938155e-06,407.31999637531646,6.316607800017418,13.752863,0.38510235,100.0,1.0,
55,58.71026587486267,0.000995378061911171,4.9824503506211265e-06,412.6989106365823,6.412876190185664,14.791318,0.39097151,100.0,1.0,
56,59.75998282432556,0.0010578035666218035,5.294926574191231e-06,417.1914514801266,6.494185579505948,15.718961,0.39592867,100.0,1.0,
57,60.80616760253906,0.0010987081426648722,5.499677941567797e-06,424.7633180883545,6.616891212871483,16.326803,0.40340962,100.0,1.0,
58,61.85829496383667,0.0011548381561238222,5.780641543158102e-06,430.46437694303796,6.71492647035311,17.160895,0.4093865,100.0,1.0,
59,62.90986227989197,0.0011937961641991924,5.975649197443545e-06,436.15423645620257,6.808965770768784,17.739811,0.41511976,100.0,1.0,
60,63.949952125549316,0.0012666212651413192,6.340181492840933e-06,441.5909692456962,6.9067574539397585,18.821992,0.42108179,100.0,1.0,
61,65.00477504730225,0.001328379138627187,6.649315830993868e-06,446.2522919108861,6.990449950360232,19.739714,0.42618424,100.0,1.0,
62,66.05279660224915,0.0013876745625841186,6.946124166608244e-06,452.63606223886075,7.099432342852909,20.620844,0.43282853,100.0,1.0,
63,67.10413885116577,0.0014151617092866755,7.083713439424641e-06,458.0560754670887,7.186866554868722,21.029303,0.4381591,100.0,1.0,
64,68.15352368354797,0.0014895228802153432,7.455934665023854e-06,463.49536018810124,7.285038938695781,22.13431,0.44414434,100.0,1.0,
65,69.19300651550293,0.0015411808209959623,7.714512922858695e-06,468.6652953735443,7.374109785740357,22.901947,0.44957469,100.0,1.0,
66,70.24638724327087,0.0016394378196500673,8.206346765790172e-06,474.0457024602531,7.476725749825143,24.362046,0.45583084,100.0,1.0,
67,71.28908681869507,0.0017043941453566624,8.531491231147285e-06,478.6540072320253,7.560335907163111,25.327297,0.46092827,100.0,1.0,
68,72.33982110023499,0.001756036608344549,8.789992013561708e-06,484.0825549679747,7.653282808662979,26.094704,0.46659493,100.0,1.0,
69,73.39379048347473,0.0017970744279946166,8.99541034325316e-06,489.6509417397468,7.745963497954352,26.704526,0.47224536,100.0,1.0,
70,74.44470238685608,0.0018814701211305519,9.417860231306797e-06,496.04814235113935,7.8607426704683965,27.958646,0.47924306,100.0,1.0,
71,75.48790669441223,0.001931385262449529,9.667714756802777e-06,499.3819176478481,7.921880372966675,28.700385,0.48297042,100.0,1.0,
72,76.53686451911926,0.001983705585464334,9.929608625781774e-06,506.4133616650633,8.039023785976024,29.477865,0.49011226,100.0,1.0,
73,77.58630895614624,0.0020834172274562584,1.0428723810833756e-05,510.94608522645564,8.129247728665026,30.95958,0.49561291,100.0,1.0,
74,78.63677477836609,0.0021057968371467027,1.0540746868612124e-05,515.1039310744304,8.196609323736046,31.292141,0.49971972,100.0,1.0,
75,79.68323683738708,0.002186855921938089,1.0946495077121956e-05,521.3356190417722,8.308161813846914,32.496679,0.5065207,100.0,1.0,
76,80.73459529876709,0.002274307065948856,1.1384239286865055e-05,525.8097876763292,8.394774272378067,33.796203,0.51180117,100.0,1.0,
77,81.77765369415283,0.002317392059219381,1.1599904919880335e-05,532.1917637505063,8.500116148609122,34.436446,0.51822351,100.0,1.0,
78,82.83208727836609,0.0023756332436069985,1.1891436168815407e-05,536.3091653049368,8.57486523076427,35.30191,0.52278071,100.0,1.0,
79,83.88176226615906,0.002448226244952894,1.2254806669756207e-05,541.242138353671,8.665048164985942,36.380642,0.52827886,100.0,1.0,
80,84.92192935943604,0.002523508882907133,1.2631640377667414e-05,546.8299913860759,8.765654668875841,37.499342,0.5344125,100.0,1.0,
81,85.97528314590454,0.0025490462987886944,1.2759470105458953e-05,552.1049293963291,8.850477944856289,37.878828,0.53958389,100.0,1.0,
82,87.0204586982727,0.0026594183714670257,1.3311946991597058e-05,556.6967937631646,8.943965478364207,39.518957,0.54528351,100.0,1.0,
83,88.06981325149536,0.0027336026244952896,1.368328263945595e-05,561.9617726768354,9.039483625966795,40.621335,0.55110693,100.0,1.0,
84,89.11985063552856,0.0027979746298788695,1.4005502239267523e-05,567.1559799155697,9.131752782437246,41.577903,0.55673227,100.0,1.0,
85,90.1730101108551,0.0028757298115746972,1.4394712477165386e-05,571.7924138763292,9.21863801292586,42.733345,0.56202937,100.0,1.0,
86,91.22368788719177,0.0029440947510094213,1.4736919051196067e-05,576.112535332152,9.298684912381805,43.749248,0.56690956,100.0,1.0,
87,92.26861882209778,0.0030240037012113055,1.5136910162269667e-05,579.8999392274684,9.373313768670947,44.936695,0.57145943,100.0,1.0,
88,93.32205843925476,0.003089248317631225,1.5463497691544444e-05,586.1478617097467,9.481584463175004,45.90623,0.57806033,100.0,1.0,
89,94.3669946193695,0.003181893270524899,1.5927239957581977e-05,590.2048341717722,9.563096265955927,47.282934,0.58302983,100.0,1.0,
90,95.42039585113525,0.003236945154777927,1.6202806890865818e-05,595.3705645232911,9.652860609078918,48.101005,0.58850246,100.0,1.0,
91,96.46995639801025,0.003308131763122477,1.655913757088802e-05,599.5119710056961,9.73085556759585,49.158838,0.59325755,100.0,1.0,
92,97.51965975761414,0.003379095423956931,1.691435226800657e-05,604.0504584535444,9.814757526986343,50.213358,0.59837277,100.0,1.0,
93,98.5582058429718,0.0034751160161507403,1.7394991586387222e-05,608.5308554506329,9.903373707750715,51.640224,0.6037754,100.0,1.0,
94,99.60989379882812,0.0035298189098250336,1.76688116173655e-05,612.7861762702532,9.97940299884857,52.453109,0.60841065,100.0,1.0,
95,100.66335773468018,0.003536000874831763,1.769975597397903e-05,607.2053641822785,9.897062069067701,52.544973,0.6033906,100.0,1.0,
96,101.71266198158264,0.0034557485868102287,1.7298046255970804e-05,602.3789151217721,9.806769728063959,51.352424,0.59788578,100.0,1.0,
97,102.75645518302917,0.0033830876177658145,1.693433553687948e-05,597.7855905551899,9.721666783613818,50.272682,0.59269734,100.0,1.0,
98,103.81233501434326,0.0032976959623149398,1.650690027394689e-05,593.170460547595,9.633398827778676,49.003762,0.58731594,100.0,1.0,
99,104.86171865463257,0.003208342934051144,1.6059636019282915e-05,589.3566295120254,9.556268273619917,47.675976,0.58261355,100.0,1.0,
100,105.91281175613403,0.0031462076043068644,1.574861229142079e-05,583.5874358665823,9.455872213680763,46.752645,0.57649274,100.0,1.0,
101,106.95443868637085,0.0030781959623149397,1.5408174178073524e-05,578.7868924383545,9.368697153523568,45.741992,0.57117797,100.0,1.0,
102,108.01106381416321,0.0030214016150740238,1.512388519669909e-05,574.8251443722786,9.296605589630804,44.898028,0.56678279,100.0,1.0,
103,109.05889821052551,0.002944357065948856,1.4738232091147294e-05,569.5907622774682,9.200908818893062,43.753146,0.56094848,100.0,1.0,
104,110.100909948349,0.002867321668909825,1.4352624797148435e-05,564.8362271373419,9.112412379335154,42.6084,0.55555315,100.0,1.0,
105,111.15992164611816,0.0028003257065948857,1.401727075562874e-05,559.3693914555696,9.015468534779336,41.61284,0.54964281,100.0,1.0,
106,112.21351671218872,0.0027124778600269178,1.357754081717541e-05,554.3832374468354,8.921087236365226,40.307421,0.5438887,100.0,1.0,
107,113.2598888874054,0.0026325814939434727,1.3177612696987105e-05,549.1409257850631,8.824635790689127,39.120161,0.53800838,100.0,1.0,
108,114.31330227851868,0.0025918121803499327,1.2973538397415043e-05,544.9959346531646,8.753367630493162,38.514329,0.5336634,100.0,1.0,
109,115.3533341884613,0.002485051615074024,1.2439139221657263e-05,541.2403147332911,8.673229857122822,36.927867,0.52877767,100.0,1.0,
110,116.4028799533844,0.002443270323014805,1.22299993769886e-05,534.8446732335443,8.567973601566138,36.306997,0.52236055,100.0,1.0,
111,117.45469045639038,0.0023725380888290713,1.1875943105830096e-05,530.5489816059494,8.487765466730224,35.255916,0.51747053,100.0,1.0,
112,118.50210857391357,0.0023122867429340513,1.1574349820880889e-05,525.3513168907594,8.396363014708134,34.360581,0.51189803,100.0,1.0,
113,119.55344891548157,0.0022486974427994616,1.1256048119394794e-05,520.6381779075948,8.311484950036268,33.415644,0.5067233,100.0,1.0,
114,120.60620927810669,0.0021565971063257066,1.0795031977606944e-05,515.1790975282279,8.20906122123496,32.047033,0.50047887,100.0,1.0,
115,121.6461889743805,0.0021026714670255723,1.0525102560132174e-05,510.6855857070887,8.129632039411264,31.245698,0.49563634,100.0,1.0,
116,122.69962120056152,0.0020517752355316285,1.0270337103530772e-05,504.0773941778481,8.019155387084929,30.48938,0.48890095,100.0,1.0,
117,123.74674153327942,0.001996014064602961,9.991219774893949e-06,498.99633668962025,7.93050312849176,29.660769,0.48349612,100.0,1.0,
118,124.79829239845276,0.0019143467025572007,9.582426782361763e-06,492.96683772670895,7.821848124798908,28.447192,0.47687179,100.0,1.0,
119,125.8456621170044,0.0018527395693135936,9.27404698743375e-06,488.92954467962034,7.747550437250443,27.53171,0.47234211,100.0,1.0,
120,126.89652013778687,0.001810578061911171,9.063003942220082e-06,482.7184233141772,7.6449774526566525,26.90519,0.46608858,100.0,1.0,
121,127.9378890991211,0.001738870390309556,8.704065035327089e-06,477.07341161708865,7.544310425370952,25.839614,0.45995125,100.0,1.0,
122,128.9922375679016,0.0016608684387617765,8.313619569748065e-06,472.6931556216456,7.4612131700716375,24.680505,0.45488509,100.0,1.0,
123,130.0417082309723,0.001622879542395693,8.123462887329639e-06,466.89087134455696,7.365703393012134,24.11599,0.44906218,100.0,1.0,
124,131.090895652771,0.0015331044414535666,7.67408591163588e-06,461.2603545853165,7.261226247914094,22.781932,0.44269256,100.0,1.0,
125,132.13954496383667,0.00148144266487214,7.4154884533707615e-06,456.04986733582285,7.171546215226958,22.014238,0.43722507,100.0,1.0,
126,133.18499040603638,0.0014116667563930012,7.066219152645014e-06,451.7726793877215,7.091828842491869,20.977368,0.43236497,100.0,1.0,
127,134.23219537734985,0.001371212516823688,6.863721983152906e-06,445.01617550822783,6.981455034902737,20.376218,0.42563585,100.0,1.0,
128,135.28504300117493,0.00129210733512786,6.46775420434648e-06,441.5716922262025,6.912149585239177,19.200715,0.42141053,100.0,1.0,
129,136.32895398139954,0.001259413930013459,6.304104558049659e-06,434.00645765772146,6.791373860260782,18.714891,0.41404724,100.0,1.0,
130,137.37476658821106,0.0012156556527590848,6.085068744246274e-06,429.27940516075944,6.710707774575528,18.064643,0.4091293,100.0,1.0,
131,138.42285227775574,0.0011572459623149394,5.792694023777627e-06,423.2207504912658,6.606799960888389,17.196675,0.40279439,100.0,1.0,
132,139.46972513198853,0.001092284925975774,5.467525978944736e-06,417.5797946372152,6.50769772573065,16.231354,0.39675246,100.0,1.0,
133,140.52361583709717,0.0010397451547779274,5.2045336432441e-06,411.82403989430384,6.409642293616993,15.450613,0.39077435,100.0,1.0,
134,141.57477974891663,0.0009872188425302825,4.9416086774742566e-06,405.43411796164554,6.302076578602053,14.670072,0.38421643,100.0,1.0,
135,142.62263298034668,0.0009200822341857334,4.6055506201777385e-06,400.4813810688608,6.212813495090813,13.672422,0.37877436,100.0,1.0,
136,143.66573238372803,0.000874749125168237,4.378631850771835e-06,394.3336377026582,6.110484251074281,12.998772,0.37253569,100.0,1.0,
137,144.7173581123352,0.0008572083445491252,4.290829967363142e-06,388.8870472937975,6.024868575510796,12.738116,0.36731599,100.0,1.0,
138,145.7881133556366,0.0007730567294751009,3.869601833004504e-06,381.69538166822787,5.898225868618121,11.487623,0.35959501,100.0,1.0,
139,146.84965181350708,0.0007192209959623149,3.6001224466674534e-06,376.6057980310127,5.8098749246548,10.687624,0.35420855,100.0,1.0,
140,147.9444236755371,0.0006682433916554508,3.3448962708841696e-06,372.393963229114,5.735328408819116,9.9300968,0.3496637,10.0,1.0,
141,148.92587065696716,0.000633487799461642,3.1709269474724907e-06,364.1696528467089,5.604206042697184,9.4136287,0.34166961,10.0,1.0,
142,149.8854808807373,0.0005874871130551817,2.94067023810673e-06,360.72730277658235,5.542312192294145,8.7300585,0.33789615,10.0,1.0,
143,150.85555958747864,0.0005608527388963661,2.807351719864706e-06,355.2440582982278,5.454119533740582,8.3342717,0.33251934,10.0,1.0,
144,151.81444334983826,0.0004711079273216689,2.3581335318304977e-06,348.9676216279748,5.339959557605134,7.0006638,0.32555939,10.0,1.0,
145,152.77502918243408,0.0004617505787348587,2.3112952678326657e-06,347.492270186076,5.31574155872374,6.8616136,0.3240829,10.0,1.0,
146,153.7488398551941,0.00032468482503364735,1.6252118225746323e-06,346.5902459591139,5.271655642570081,4.8248165,0.32139513,10.0,1.0,
147,154.71010422706604,0.0003984419515477793,1.99440355796215e-06,351.29664237873413,5.358699148752899,5.9208474,0.32670188,10.0,1.0,
