,Tiempo [s],Corriente tubo [A],Err corriente tubo [A],Tension tubo [V],Err tension tubo [V],"Medicion ""corriente"" [V]","Medicion ""tension"" [V]","Rango ""corriente""","Rango ""tension""",Hora
0,0.0,6.520861372812921e-10,3.2641064476416126e-12,26.576630547113922,0.3986828981604265,9.69e-06,0.024306308,0.1,0.1,13:06:06
1,1.3276762962341309,4.7907133243607e-10,2.398057781325539e-12,26.642621207088606,0.3996728021633755,7.119e-06,0.024366659,0.1,0.1,
2,2.3992531299591064,4.6090174966352626e-10,2.3071075131179686e-12,26.743970285810132,0.40119316126160653,6.849e-06,0.02445935,0.1,0.1,
3,3.4863290786743164,4.553162853297443e-10,2.2791487269725835e-12,27.491941437481014,0.41241366433226495,6.766e-06,0.025143425,0.1,0.1,
4,4.568228483200073,7.781965006729475e-10,3.895368681358746e-12,39.973663870303795,0.5996552096094541,1.1564e-05,0.03655889,0.1,0.1,
5,5.6538872718811035,7.179676985195155e-10,3.5938853839788536e-12,46.59710917225316,0.6990151734093522,1.0669e-05,0.042616521,0.1,0.1,
6,6.729604005813599,7.130551816958277e-10,3.5692951262081843e-12,56.15803993158227,0.8424411114137955,1.0596e-05,0.051360701,0.1,0.1,
7,7.814932823181152,7.277254374158815e-10,3.642729046676147e-12,64.5108015411772,0.9677430029716435,1.0814e-05,0.058999921,0.1,0.1,
8,8.899252891540527,7.207267833109018e-10,3.607696350672287e-12,72.59704161497469,1.089046732770203,1.071e-05,0.066395387,0.1,0.1,
9,9.986793994903564,7.186406460296097e-10,3.597253912440646e-12,81.45041242136708,1.2218583856961502,1.0679e-05,0.074492451,0.1,0.1,
10,11.06891942024231,6.430013458950202e-10,3.2186313134299117e-12,89.60737167444303,1.3442229764779368,9.555e-06,0.081952594,0.1,0.1,
11,12.144738912582397,6.584118438761777e-10,3.295770615168754e-12,97.86713042516458,1.468129708805899,9.784e-06,0.089506756,0.1,0.1,
12,13.235265016555786,6.423283983849259e-10,3.2152627849699196e-12,106.72412935755696,1.6009957850468168,9.545e-06,0.097607138,0.1,0.1,
13,14.317464113235474,6.317631224764469e-10,3.162376888150584e-12,114.55978947237975,1.718537064242263,9.388e-06,0.10477343,0.1,1.0,
14,15.374325513839722,6.668236877523552e-10,3.3378772209253296e-12,122.572654881,1.8387398511507465,9.909e-06,0.11210179,0.1,1.0,
15,16.426836252212524,6.660834454912517e-10,3.334171839618644e-12,130.9190859042785,1.9639465221754802,9.898e-06,0.11973522,0.1,1.0,
16,17.487661838531494,6.598250336473755e-10,3.3028445249356692e-12,139.33987948791142,2.0902687213044078,9.805e-06,0.12743666,0.1,1.0,
17,18.54325771331787,7.011440107671602e-10,3.5096721724385585e-12,147.07926232910125,2.206368936687809,1.0419e-05,0.1345149,0.1,1.0,
18,19.602256298065186,7.543741588156124e-10,3.776122773780325e-12,155.51242144,2.332876647107112,1.121e-05,0.14222765,0.1,1.0,
19,20.66166663169861,7.515477792732168e-10,3.76197495423807e-12,163.9309078879494,2.4591642371447313,1.1168e-05,0.14992698,0.1,1.0,
20,21.72082257270813,7.207267833109018e-10,3.607696350672287e-12,171.7923158062025,2.577094961812473,1.071e-05,0.15711682,0.1,1.0,
21,22.773759841918945,6.969044414535666e-10,3.4884504431318148e-12,180.1145282503291,2.701938319390539,1.0356e-05,0.1647281,0.1,1.0,
22,23.837620496749878,6.625841184387618e-10,3.3166554916236787e-12,188.81664443969623,2.8324806953453443,9.846e-06,0.17268683,0.1,1.0,
23,24.8964204788208,6.528263795423957e-10,3.267811828947899e-12,196.52688879494937,2.948143786423838,9.701e-06,0.17973842,0.1,1.0,
24,25.943899154663086,6.955585464333782e-10,3.4817133862091613e-12,204.5675156441266,3.068763030596921,1.0336e-05,0.18709217,0.1,1.0,
25,27.00110411643982,7.039703903095559e-10,3.5238199919767098e-12,212.78370012026585,3.1920158461919907,1.0461e-05,0.19460648,0.1,1.0,
26,28.06326174736023,6.409152086137282e-10,3.2081888752040006e-12,221.2671794601772,3.3192783956548895,9.524e-06,0.20236525,0.1,1.0,
27,29.12248182296753,5.673620457604307e-10,2.8400087146610043e-12,229.14825837051902,3.43750419973146,8.431e-06,0.20957308,0.1,1.0,
28,30.182547330856323,5.365410497981157e-10,2.685730111340932e-12,237.82372822649367,3.5676468488828643,7.973e-06,0.21750744,0.1,1.0,
29,31.241638898849487,5.323014804845223e-10,2.6645083820683627e-12,245.99739036772152,3.6902617746386155,7.91e-06,0.22498286,0.1,1.0,
30,32.291247606277466,5.295423956931359e-10,2.65069741539962e-12,253.83583636264555,3.807848048634572,7.869e-06,0.2321517,0.1,1.0,
31,33.35027813911438,7.928667563930013e-10,3.9688026018516144e-12,262.52558171774683,3.938204913299001,1.1782e-05,0.24009912,0.1,1.0,
32,34.400516986846924,9.259757738896366e-10,4.635097532018951e-12,270.6793090436709,4.060520823066818,1.376e-05,0.24755631,0.1,1.0,
33,35.46512150764465,7.508748317631225e-10,3.758606425775659e-12,279.0006271436456,4.185350730666271,1.1158e-05,0.25516677,0.1,1.0,
34,36.517438888549805,4.783983849259758e-10,2.3946892528727887e-12,287.27078626770884,4.309413169364163,7.109e-06,0.26273044,0.1,1.0,
35,37.609236001968384,4.839838492597577e-10,2.422648039031983e-12,295.32674320787345,4.430262375366695,7.192e-06,0.27009821,0.1,1.0,
36,38.66941475868225,5.855989232839839e-10,2.931295835867283e-12,303.3211837521772,4.550188781617105,8.702e-06,0.27740972,0.1,1.0,
37,39.72037172317505,7.915208613728129e-10,3.9620655449254595e-12,311.7978799836962,4.677349636119762,1.1762e-05,0.28516229,0.1,1.0,
38,40.78014039993286,7.347913862718708e-10,3.678098595527627e-12,319.74849920606334,4.79661863365945,1.0919e-05,0.29243372,0.1,1.0,
39,41.830891370773315,6.969044414535666e-10,3.4884504431318148e-12,328.48312238096196,4.9276486533510235,1.0356e-05,0.30042218,0.1,1.0,
40,42.8939688205719,7.319650067294751e-10,3.663950775986866e-12,336.5100271105949,5.048062047241684,1.0877e-05,0.30776338,0.1,1.0,
41,43.94563150405884,7.074697173620458e-10,3.5413363399766767e-12,344.6559936025696,5.17026149987761,1.0513e-05,0.31521347,0.1,1.0,
42,45.00302219390869,5.295423956931359e-10,2.65069741539962e-12,353.1471066168227,5.297638538182846,7.869e-06,0.32297922,0.1,1.0,
43,46.06002330780029,5.848586810228803e-10,2.9275904545633376e-12,361.1488736630506,5.417674840599967,8.691e-06,0.33029743,0.1,1.0,
44,47.11202049255371,9.08479138627187e-10,4.547515791939706e-12,369.5564977477215,5.54379955467707,1.35e-05,0.33798683,0.1,1.0,
45,48.17366695404053,7.845222072678331e-10,3.927032848910113e-12,373.8332769564303,5.607956444731251,1.1658e-05,0.34189826,0.1,1.0,
46,49.231712341308594,0.0006595039703903095,3.3011510457696595e-06,354.83173891936707,5.469925393878268,9.800229,0.33348297,10.0,1.0,
47,50.19057297706604,0.0006861750336473756,3.43465321151116e-06,359.8018608381013,5.550428765365024,10.196561,0.33839099,10.0,1.0,
48,51.15970706939697,0.0007543874158815613,3.776150980898511e-06,365.96299578670886,5.658059113768326,11.210197,0.34495285,100.0,1.0,
49,52.18097257614136,0.0007892761776581426,3.950789673457232e-06,371.30527646430386,5.745977197058481,11.728644,0.35031292,100.0,1.0,
50,53.27511668205261,0.0008565623822341858,4.287596547534556e-06,376.5156271363291,5.83913814972352,12.728517,0.35599263,100.0,1.0,
51,54.31954765319824,0.000874021130551817,4.374987811215043e-06,383.38009588139244,5.946005447492977,12.987954,0.36250797,100.0,1.0,
52,55.36704874038696,0.0009698976446837147,4.854905934486513e-06,388.403366418481,6.042733271104177,14.412679,0.36840514,100.0,1.0,
53,56.41773343086243,0.001017784993270525,5.094610169359011e-06,394.02023584810127,6.137668143804316,15.124285,0.374193,100.0,1.0,
54,57.46854281425476,0.0010710296769851952,5.361131005185124e-06,399.54125821253166,6.232359441159808,15.915501,0.37996601,100.0,1.0,
55,58.5116024017334,0.0011308594212651412,5.660613927052128e-06,404.47609000759496,6.319725093522335,16.804571,0.3852924,100.0,1.0,
56,59.55964994430542,0.001212799596231494,6.070772508081565e-06,410.4653979331646,6.427837995818216,18.022202,0.39188368,100.0,1.0,
57,60.612324237823486,0.0012647415881561238,6.330772608305869e-06,415.8313692559494,6.519912944559235,18.79406,0.39749718,100.0,1.0,
58,61.65467691421509,0.0013287915208613729,6.651380045673478e-06,421.33569585860766,6.616762472803285,19.745842,0.40340177,100.0,1.0,
59,62.703813552856445,0.00138529199192463,6.934198004608962e-06,425.28511462936706,6.688603569757694,20.585439,0.40778168,100.0,1.0,
60,63.751100063323975,0.0014530333109017497,7.273282992896176e-06,430.74832039962024,6.785659112915776,21.592075,0.41369883,100.0,1.0,
61,64.80377078056335,0.0015131376177658143,7.574140261351431e-06,437.06154075455686,6.893763484729272,22.485225,0.42028959,100.0,1.0,
62,65.85465002059937,0.0015661127860026917,7.839312014313341e-06,442.0055982726583,6.979739524886184,23.272436,0.42553126,100.0,1.0,
63,66.90575575828552,0.0015986882907133243,8.002371500016385e-06,447.6486074236709,7.0716532364558455,23.756508,0.43113493,100.0,1.0,
64,67.95505023002625,0.0016872241588156125,8.445545389332042e-06,451.78678140696206,7.153467168186589,25.072151,0.43612285,100.0,1.0,
65,68.99987602233887,0.001791186339165545,8.965937009078577e-06,456.25919575556964,7.243733921287286,26.617029,0.44162611,100.0,1.0,
66,70.05149459838867,0.001842392866756393,9.222255679434495e-06,462.8282356188608,7.353692421344928,27.377958,0.44832991,100.0,1.0,
67,71.10114908218384,0.0018852849259757738,9.436955564491806e-06,467.8283577187342,7.438261789889865,28.015334,0.45348582,100.0,1.0,
68,72.14224243164062,0.00198584266487214,9.940305960243323e-06,473.0187874520254,7.53854073994567,29.509622,0.45959949,100.0,1.0,
69,73.19361901283264,0.002057306325706595,1.0298023450290975e-05,477.46649463189874,7.621192341944907,30.571572,0.46463848,100.0,1.0,
70,74.23996305465698,0.0020873660161507403,1.0448489811679849e-05,483.5751864802532,7.719531042476461,31.018259,0.47063386,100.0,1.0,
71,75.28974413871765,0.002167156325706595,1.0847887056813479e-05,487.1628497564558,7.791137096950149,32.203943,0.47499944,100.0,1.0,
72,76.33641386032104,0.0022520970390309553,1.1273065090214724e-05,492.90226101329114,7.896170121085081,33.466162,0.48140295,100.0,1.0,
73,77.38674211502075,0.0023164809555854646,1.1595344312415056e-05,496.78657786506335,7.968791975354404,34.422907,0.48583046,100.0,1.0,
74,78.43011331558228,0.0023723255720053834,1.1874879334622817e-05,501.3378105435444,8.049514816170797,35.252758,0.49075186,100.0,1.0,
75,79.48335266113281,0.0024637807537012113,1.2332666098777926e-05,507.23019425303795,8.158294808718932,36.611782,0.49738381,100.0,1.0,
76,80.53558921813965,0.002545580820995962,1.274212335882777e-05,510.7638501454431,8.229538699025372,37.827331,0.50172731,100.0,1.0,
77,81.5824966430664,0.002621919851951548,1.3124244932607206e-05,516.7828579591139,8.336848541578116,38.961729,0.50826963,100.0,1.0,
78,82.63208484649658,0.0026888666218034996,1.3459352737029841e-05,520.9783462562025,8.414709655386284,39.956558,0.51301656,100.0,1.0,
79,83.67333817481995,0.002765612382234186,1.3843510230117952e-05,525.9502463069621,8.506402269123035,41.097,0.51860675,100.0,1.0,
80,84.72405743598938,0.0028281553162853297,1.4156574256334257e-05,530.2221533908861,8.584428062700846,42.026388,0.52336372,100.0,1.0,
81,85.77506995201111,0.0029418230148048454,1.4725547680576894e-05,534.9841412643037,8.681202313628425,43.71549,0.52926372,100.0,1.0,
82,86.82554006576538,0.002983656931359354,1.4934950941674971e-05,540.5624239946836,8.774208919688,44.337142,0.53493402,100.0,1.0,
83,87.87602877616882,0.003065245020188425,1.5343347125314765e-05,543.9309001775949,8.842927659544705,45.549541,0.53912357,100.0,1.0,
84,88.92015075683594,0.003155390040376851,1.5794575763556476e-05,548.488198958481,8.931387688491618,46.889096,0.54451668,100.0,1.0,
85,89.97084522247314,0.0032172623822341855,1.6104283082970832e-05,553.8585229807594,9.02574159195795,47.808519,0.55026912,100.0,1.0,
86,91.02003264427185,0.003290210161507402,1.6469429455287434e-05,557.3891257098733,9.094966345256893,48.892523,0.55448952,100.0,1.0,
87,92.07037615776062,0.003367613122476447,1.685687662209635e-05,561.9747785292406,9.181011281293113,50.042731,0.55973539,100.0,1.0,
88,93.11943244934082,0.0034532917227456258,1.7285748211953523e-05,567.0254995256963,9.2758776002398,51.315915,0.56551907,100.0,1.0,
89,94.16336464881897,0.003558758479138627,1.781367111626382e-05,571.1513284708859,9.361280550818345,52.883151,0.5707258,100.0,1.0,
90,95.20945501327515,0.0036509535666218035,1.8275161542364477e-05,575.8964943748101,9.45301581468281,54.25317,0.57631859,100.0,1.0,
91,96.25991225242615,0.0037281020861372814,1.866133508063168e-05,579.1580424150632,9.519140841446905,55.399597,0.58035001,100.0,1.0,
92,97.30936670303345,0.003791292328398385,1.8977639263669653e-05,584.04247798,9.60649960879423,56.338604,0.58567598,100.0,1.0,
93,98.36018824577332,0.003869488559892328,1.9369057214199728e-05,589.8836102017722,9.711555105571291,57.5006,0.59208086,100.0,1.0,
94,99.40220904350281,0.0039726921265141315,1.9885651527796903e-05,592.7764806556962,9.777957666146602,59.034205,0.5961292,100.0,1.0,
95,100.45058679580688,0.0039730133243607,1.988725931119537e-05,588.7332707246835,9.717376176374072,59.038978,0.59243575,100.0,1.0,
96,101.50003433227539,0.003887679138627187,1.946011171786728e-05,584.0893611517721,9.628689301510216,57.770912,0.58702881,100.0,1.0,
97,102.55002069473267,0.0038039318977119785,1.904090771307943e-05,580.0195575886075,9.548968477711304,56.526428,0.5821685,100.0,1.0,
98,103.60290002822876,0.003731645423956931,1.867907156231252e-05,575.2131069388607,9.460751862543207,55.452251,0.57679023,100.0,1.0,
99,104.64450669288635,0.0036489391655450875,1.8265078284822142e-05,571.16349031481,9.381565921812784,54.223236,0.57196253,100.0,1.0,
100,105.69511318206787,0.0035722754374158815,1.7881331411462232e-05,566.5944391051898,9.295934818318699,53.084013,0.56674189,100.0,1.0,
101,106.74458980560303,0.0035064045087483176,1.755160882245783e-05,562.1328364658226,9.214321487671251,52.105171,0.5617662,100.0,1.0,
102,107.79478454589844,0.0034220627860026918,1.712942908782669e-05,558.1124650326581,9.135209685898737,50.851853,0.55694302,100.0,1.0,
103,108.84253096580505,0.003331082570659489,1.6674019808529396e-05,553.9913919883543,9.053107395342645,49.499887,0.55193752,100.0,1.0,
104,109.89459371566772,0.0032537160161507403,1.6286754877383282e-05,547.7974444298735,8.94294418798702,48.35022,0.54522124,100.0,1.0,
105,110.9369261264801,0.0031625833781965007,1.583058263361972e-05,544.4357319194936,8.872199256149754,46.995989,0.54090816,100.0,1.0,
106,111.9940414428711,0.0030940253701211306,1.5487409637931763e-05,539.7754017569621,8.787005770954515,45.977217,0.5357142,100.0,1.0,
107,113.04146361351013,0.0030225981157469715,1.5129874383546916e-05,535.0771683774683,8.700604083684354,44.915808,0.53044658,100.0,1.0,
108,114.09117412567139,0.002930844347240915,1.4670593017477084e-05,530.6469274302533,8.61369145824924,43.552347,0.52514781,100.0,1.0,
109,115.13561868667603,0.002868598183041723,1.4359014498234847e-05,525.8799666922785,8.5283054099649,42.627369,0.51994211,100.0,1.0,
110,116.18521094322205,0.0027872891655450873,1.3952015230110118e-05,521.3352242155696,8.442003448199404,41.419117,0.51468057,100.0,1.0,
111,117.23471021652222,0.0027065687079407806,1.354796204905913e-05,516.6300804565823,8.353426472045223,40.219611,0.50928033,100.0,1.0,
112,118.27704215049744,0.002656880080753701,1.3299241359498457e-05,511.7155383453165,8.268625827915068,39.481238,0.50411032,100.0,1.0,
113,119.33002495765686,0.0025811034993270528,1.2919935175127015e-05,506.1057111231646,8.167579574601994,38.355198,0.49794987,100.0,1.0,
114,120.37499713897705,0.002501585935397039,1.2521903181640977e-05,501.07082043797465,8.074324138806904,37.173567,0.4922644,100.0,1.0,
115,121.42321538925171,0.002412112314939435,1.2074035292397065e-05,496.61538906101276,7.987541913940997,35.843989,0.48697358,100.0,1.0,
116,122.47025036811829,0.0023770353297442796,1.189845443135615e-05,490.8827059886076,7.893725357861747,35.322745,0.4812539,100.0,1.0,
117,123.52332162857056,0.0022647164199192465,1.1336232484728307e-05,486.56890396544304,7.8039751137013935,33.653686,0.47578213,100.0,1.0,
118,124.57139110565186,0.0022049328398384923,1.1036980641723934e-05,481.4376994662026,7.713673919561482,32.765302,0.47027677,100.0,1.0,
119,125.62168669700623,0.002142737819650067,1.0725658128218723e-05,478.16084746607595,7.650652725838021,31.841084,0.46643458,100.0,1.0,
120,126.67201018333435,0.002054071534320323,1.0281831424273647e-05,472.7202557806329,7.549271862586008,30.523503,0.46025373,100.0,1.0,
121,127.72259831428528,0.0020006592866756395,1.0014471832809115e-05,466.7522792649367,7.447838352007616,29.729797,0.45406967,100.0,1.0,
122,128.769597530365,0.001933627590847914,9.678938924123156e-06,463.80369281810124,7.38866335981848,28.733706,0.45046197,100.0,1.0,
123,129.81127452850342,0.0018205691790040377,9.113015336647685e-06,457.26379490354435,7.265354108781525,27.053658,0.44294422,100.0,1.0,
124,130.86276817321777,0.001807698923283984,9.048592166624057e-06,452.16888171860757,7.186055166868382,26.862406,0.43810963,100.0,1.0,
125,131.91312432289124,0.0017150452893674292,8.584806446981157e-06,446.97512660582277,7.087488301917034,25.485573,0.43210034,100.0,1.0,
126,132.96356105804443,0.0016522449528936743,8.270453970838366e-06,442.357767208481,7.004222923186419,24.55236,0.42702393,100.0,1.0,
127,134.0045247077942,0.0016067548452220728,8.042749331189719e-06,436.88242826721523,6.911945568728016,23.876377,0.42139809,100.0,1.0,
128,135.05564832687378,0.001506757133243607,7.542202198258651e-06,432.8407833762026,6.829024637137013,22.390411,0.41634268,100.0,1.0,
129,136.10552525520325,0.0014809264468371467,7.412904479675054e-06,426.56037818569615,6.7290527489155725,22.006567,0.41024773,100.0,1.0,
130,137.15283870697021,0.0014132728802153432,7.074258743336636e-06,421.87044749632906,6.643616838875125,21.001235,0.40503899,100.0,1.0,
131,138.20244240760803,0.00135905201884253,6.8028515664298374e-06,416.9136951977215,6.557172673924201,20.195513,0.39976878,100.0,1.0,
132,139.2541308403015,0.0012963373485868103,6.488927899896568e-06,410.2555890060759,6.4433126954347415,19.263573,0.39282712,100.0,1.0,
133,140.29671168327332,0.0011779541722745626,5.896350746700008e-06,406.118324719114,6.354858901595587,17.504399,0.38743439,100.0,1.0,
134,141.34685444831848,0.0011426397711978467,5.719581480079843e-06,400.8142855353164,6.26741960424836,16.979627,0.38210351,100.0,1.0,
135,142.40184712409973,0.00110175,5.514904219627153e-06,395.56677809164563,6.17958550040562,16.372005,0.37674856,100.0,1.0,
136,143.44397449493408,0.0010179806864064602,5.0955897281527946e-06,390.19206116822784,6.080284466521231,15.127193,0.37069451,100.0,1.0,
137,144.49101042747498,0.0009635228129205922,4.822996166764668e-06,382.8378445592405,5.957822572011987,14.317949,0.36322842,100.0,1.0,
138,145.5421998500824,0.0009193205248990579,4.601737818944301e-06,378.41061943215186,5.881555285698291,13.661103,0.35857866,100.0,1.0,
139,146.61022925376892,0.0008528177658142665,4.26885254853865e-06,372.29197993797465,5.774943534184043,12.672872,0.3520789,100.0,1.0,
140,147.65967679023743,0.0007949818977119785,3.9793501450695205e-06,366.79916394822783,5.679651908652252,11.813431,0.34626929,100.0,1.0,
141,148.70393991470337,0.000736850134589502,3.688366613671826e-06,361.7444003406329,5.590865644230612,10.949593,0.34085629,100.0,1.0,
142,149.78091025352478,0.0007183260430686406,3.5956426831191287e-06,354.4218480389873,5.476889048602274,10.674325,0.33390752,100.0,1.0,
143,150.86210870742798,0.0006569836944818303,3.2885357897221164e-06,350.5377535335442,5.404948547247375,9.7627777,0.32952155,10.0,1.0,
144,151.8431911468506,0.0005962898519515478,2.9847324000008748e-06,343.73329047721523,5.289343519001707,8.8608672,0.3224735,10.0,1.0,
145,152.81274509429932,0.0005425349596231494,2.715661966779916e-06,338.5387085973418,5.199435495289701,8.0620695,0.31699211,10.0,1.0,
146,153.77279996871948,0.00047289252355316283,2.3670663388799294e-06,341.0687938192404,5.221865301051124,7.0271829,0.31835958,10.0,1.0,
147,154.74117183685303,0.000427013532974428,2.1374187787035534e-06,331.64015608645565,5.070196944347038,6.3454211,0.30911287,10.0,1.0,
