,Tiempo [s],Corriente [A],Err corriente [A],Tension [V],Err tension [V],Hora
0,0.0,4.472409152086137e-09,2.238724255900248e-11,72.92405830836708,1.0939532291697676,9:53:44
1,1.6213479042053225,4.4111036339165555e-09,2.2080369615492107e-11,60.50297332675949,0.9076213799358511,
2,2.847297191619873,4.450605652759085e-09,2.2278102236612348e-11,50.70729892039239,0.760674000855152,
3,4.032132148742676,4.604306864064603e-09,2.3047474138894652e-11,41.99043857655697,0.6299102096824846,
4,5.218234539031982,4.4237550471063255e-09,2.2143697950706058e-11,33.38377984221519,0.5007995061989886,
5,6.406906127929688,4.3835800807537016e-09,2.1942596801117124e-11,23.39212578970886,0.350912169146018,
6,7.592441558837891,4.487281292059218e-09,2.246168703816368e-11,14.621301181974683,0.21933883526377568,
7,8.778594493865967,4.258075370121131e-09,2.1314366241682402e-11,15.0990930786962,0.22650626118680284,
8,9.973036050796509,4.6579407806191115e-09,2.331594585786158e-11,26.50944688327849,0.39767595201635225,
9,11.151031255722046,4.567631224764468e-09,2.2863889337342793e-11,26.539812083886083,0.3981314479345954,
10,12.33240842819214,4.451278600269179e-09,2.2281470765081177e-11,26.599414229481013,0.399025528849522,
11,13.514647006988524,4.296164199192463e-09,2.150502495301732e-11,26.713690484455697,0.40073978125886406,
12,14.69740605354309,4.282032301480485e-09,2.1434285855172184e-11,26.02899060317722,0.3904684221134869,
13,15.892355918884276,4.437886944818304e-09,2.2214437048551462e-11,44.48580899159495,0.6673438549514296,
14,17.08451008796692,4.4788021534320325e-09,2.2419243579456392e-11,53.47340228434177,0.8021690229092735,
15,18.270511627197266,4.4816285329744276e-09,2.243339139902549e-11,62.5424635675443,0.9382163042944298,
16,19.463611602783203,4.409690444145356e-09,2.2073295705707563e-11,71.32340060670887,1.0699413443973358,
17,20.651721954345703,4.429407806191117e-09,2.2171993589844222e-11,80.53322332654429,1.2081002274399235,
18,21.845827341079712,4.39414535666218e-09,2.199548269807768e-11,89.7924654920253,1.3470004518226923,
19,23.032221794128414,4.278532974427994e-09,2.1416769507134344e-11,99.29641399807596,1.4895715599648687,
20,24.217879056930546,4.294751009421265e-09,2.14979510432328e-11,108.26442367973418,1.6241029437170356,
21,25.409201860427856,4.3490578734858695e-09,2.1769791290666506e-11,118.0604017521139,1.7710548990800963,
22,26.597163915634155,4.260901749663526e-09,2.1328514061251416e-11,126.77333251755695,1.9017597562652147,
23,27.761372089385983,4.267227456258412e-09,2.1360178228858264e-11,136.32986762153163,2.0451156668849637,
24,28.927376985549927,4.2129205921938094e-09,2.10883379814252e-11,144.48834311043038,2.167502763124948,
25,30.095868587493896,4.200942126514132e-09,2.1028378174680413e-11,154.04970040273412,2.3109348112661845,
26,31.258217334747314,4.29542395693136e-09,2.1501319571701624e-11,162.70611034645574,2.4407915663600095,
27,32.428935289382935,4.156527590847914e-09,2.080605529573927e-11,171.70819283488612,2.575833780281354,
28,33.60455822944641,4.228465679676986e-09,2.1166150989054692e-11,181.19276997664556,2.718114050985795,
29,34.78180313110352,4.198115746971737e-09,2.1014230355111425e-11,189.50920933903802,2.8428708038235273,
30,35.95966720581055,4.126917900403769e-09,2.065784004311202e-11,199.19141063893676,2.9881156466431267,
31,37.14761853218079,4.1290040376850605e-09,2.06682824813653e-11,208.0667435174304,3.1212564928562214,
32,38.33477163314819,4.133243606998655e-09,2.068950421071874e-11,217.89700167594935,3.2687223864123123,
33,39.52838897705078,4.128331090174966e-09,2.0664913952896493e-11,226.93689212046837,3.404331795773196,
34,40.7078754901886,4.167765814266488e-09,2.0862309721168293e-11,236.63901361662028,3.5498754905566003,
35,41.88921761512756,4.090915208613728e-09,2.047762377003134e-11,245.41790934153167,3.6815696439482006,
36,43.074652433395386,4.035195154777927e-09,2.0198709612815293e-11,254.92445488801266,3.824179439128648,
37,44.27157616615296,4.0112382234185735e-09,2.0078789999326432e-11,263.5299467179367,3.9532723338517584,
38,45.47293329238892,4.051413189771198e-09,2.027989114891315e-11,272.67829134068364,4.090508698552371,
39,46.68089246749878,4.018304172274563e-09,2.0114159548248698e-11,282.53475897356964,4.238367757946683,
40,47.88572907447815,4.026783310901751e-09,2.0156603006955434e-11,291.6483665884557,4.375083017988124,
41,49.10371422767639,3.938627187079407e-09,1.9715325777544777e-11,301.41645510807604,4.521616270344327,
42,50.33402729034424,4.0394347240915214e-09,2.0219931342168674e-11,310.99008966324044,4.665232517582902,
43,51.55562996864319,4.0415881561238225e-09,2.02307106332688e-11,320.4627934630127,4.807334658082794,
44,52.76604866981506,3.982301480484522e-09,1.9933943275168666e-11,329.8140099392025,4.947614326480685,
45,53.99035120010376,3.951278600269179e-09,1.977865411275783e-11,339.6673941388101,5.095427131070501,
46,55.218639850616455,3.937213997308211e-09,1.9708251867760353e-11,348.87918986337974,5.233615327794144,
47,56.44012665748596,3.8045760430686406e-09,1.904431490656583e-11,358.2275645764051,5.373852349918386,
48,57.66063070297241,3.801076716016151e-09,1.9026798558528274e-11,367.6250093896708,5.51482551233547,
49,58.89148736000061,3.818034993270525e-09,1.9111685475941073e-11,377.5373602113419,5.663522899055256,
50,60.11156511306763,0.001092606191117,5.4691340991923874e-06,334.9163860353164,5.26771714313821,
51,61.38455557823181,0.0012850355316285,6.432355684758164e-06,336.29454136886073,5.331287173440675,
52,62.6163489818573,0.0014006522880215,7.011085285529112e-06,339.05791729531643,5.398514279146797,
53,63.84727334976196,0.0015940118438761003,7.978963143861383e-06,340.902779286076,5.469292845925185,
54,65.08884286880493,0.0016711535666218001,8.365102660313907e-06,346.7267574878482,5.5738559402483405,
55,66.33289313316345,0.0018386278600269,9.203409614993345e-06,349.6792885767088,5.655480601586018,
56,67.57584953308105,0.0019781986541049,9.902043208046954e-06,354.4937840797468,5.758816805550184,
57,68.82237386703491,0.0021197155450874,1.0610418156244399e-05,356.6405696051898,5.822567920513135,
58,70.07105016708374,0.0022423366083445,1.1224208416400731e-05,359.6300589267088,5.8947483970808285,
59,71.31119537353516,0.0023648901076716,1.1837660479504529e-05,362.3340473194936,5.9626309502114605,
60,72.56316041946411,0.0025378311574697,1.2703331752674956e-05,367.2116750951898,6.074353060883444,
61,73.81085705757141,0.0026619306191117,1.332452226287952e-05,370.9762986418988,6.158491062523453,
62,75.06405019760132,0.0027861453566621,1.394628979654096e-05,374.08365818291134,6.23279499850462,
63,76.31909441947937,0.0029670279946164,1.4851713371077654e-05,375.33885606050626,6.2919465625863245,
64,77.58503198623657,0.0030912799461641,1.5473667182597705e-05,379.09079345696205,6.375928251318994,
65,78.84910845756531,0.0032631453566621,1.6333954250899034e-05,381.56429526772166,6.451345759837265,
66,80.11718153953552,0.0034156876850605,1.70975179727059e-05,384.20328583113917,6.524938332708221,
67,81.39186406135559,0.0035690067294751,1.786496961321929e-05,386.9944390006327,6.600986675763169,
68,82.6693823337555,0.0037370986541049,1.8706368174022665e-05,390.07242305493673,6.684630980263044,
69,83.94499635696411,0.0038775559892328,1.940943942441836e-05,392.7829463300001,6.756602666355138,
70,85.23376679420471,0.0040324533647375,2.01847915367159e-05,395.154603251519,6.826709894770428,
71,86.51434111595154,0.0042097326379542,2.1072178159680155e-05,398.74601607759496,6.920104289939252,
72,87.79883766174316,0.0043646130551816,2.1847445385864663e-05,399.5836043440506,6.967194836121423,
73,89.09010457992554,0.0045176298115746,2.261338389773203e-05,403.39623649696216,7.058499230955232,
74,90.38349509239195,0.0046924472409152,2.3488447549805e-05,405.4684590606329,7.128555128945433,
75,91.66468334197998,0.0048415180349932,2.4234634208511437e-05,408.92899060151916,7.213697958112584,
76,92.96461820602416,0.0049953239569313,2.5004522956271135e-05,411.4888700735443,7.286385454266972,
77,94.25501918792725,0.005181620794078,2.5937047769718746e-05,415.0116019181012,7.380759737205446,
78,95.57323431968688,0.0053442962314939,2.6751333638723133e-05,415.5573289034177,7.425209666872404,
79,96.86812400817873,0.0054950183041722,2.750578591423918e-05,418.6483203446836,7.505177046290988,
80,98.1686019897461,0.005678250807537,2.8422971941843327e-05,421.24965728962025,7.585046186626153,
81,99.47049045562744,0.0058355057873485,2.9210125244918203e-05,424.2657767877216,7.665346702400843,
82,100.77513909339903,0.006004217496635201,3.0054626191035284e-05,426.2772500139241,7.733130215001994,
83,102.09770441055298,0.0061816444818304,3.09427521989902e-05,428.74661330822767,7.8097254345134415,
84,103.40792441368104,0.0063512400403768,3.179167732846241e-05,430.5754747496202,7.874966575346113,
85,104.7176411151886,0.006525132839838399,3.266211266628898e-05,433.497356418228,7.957562288933174,
86,106.0208785533905,0.0066815195154777,3.344491959827889e-05,434.9833110207593,8.014714905673294,
87,107.34173655509947,0.0068636258411843,3.4356468446923336e-05,438.3305420002532,8.105522326339125,
88,108.65758562088013,0.007046236204576,3.527054029947632e-05,440.54846031886075,8.179501038941444,
89,109.97487616539,0.0071965437415881,3.6022917581123904e-05,442.1994632893671,8.23777443197605,
90,111.30361080169678,0.0071131123822341,3.56052947486117e-05,438.5224294007595,8.164016041461737,
91,112.6248722076416,0.0069584246298788,3.483099192298635e-05,435.62784177810124,8.08611093009222,
92,113.95498919487,0.006771569986541,3.389567496275696e-05,434.1671525979747,8.02254545015835,
93,115.28188133239746,0.0066106770524899,3.3090311567387595e-05,431.7890370079745,7.951004800847578,
94,116.628164768219,0.0064523871467025,3.229797785348348e-05,428.1449588387341,7.861053431452173,
95,117.95295190811156,0.0062456733512786,3.126325420241619e-05,426.4742891236709,7.789911017251492,
96,119.29678702354433,0.0060984813593539,3.052647204919865e-05,423.89081715151895,7.718343966851123,
97,120.63615417480467,0.0059043704576043,2.9554833264479757e-05,421.45927907430377,7.638597018420117,
98,121.97257614135742,0.0057502966352624,2.87836035182474e-05,418.99219789556963,7.567241886013329,
99,123.32503366470335,0.0055942257738896,2.800237742168371e-05,415.19843466987345,7.475539726839304,
100,124.66652274131776,0.0054095374831763,2.707790432551537e-05,412.8437316188607,7.3990458741816125,
101,126.03743600845335,0.0052375618438761,2.6217065497480584e-05,410.44825308582267,7.324774225238345,
102,127.38637971878052,0.0050639220053835,2.5347896377503104e-05,407.8302856679746,7.2467939914763875,
103,128.74498558044434,0.0048975617092866,2.451516563199566e-05,404.6698109568355,7.162298231000212,
104,130.10920882225037,0.0047189559892328,2.3621139365501974e-05,402.1246087382278,7.084302579184125,
105,131.51854705810547,0.004512717833109,2.2588796567788874e-05,399.83690407455697,7.004009926702491,
106,132.89881086349487,0.0043684927321668,2.1866865442116135e-05,397.21338970113936,6.932503572876557,
107,134.25945210456848,0.0042036789367429,2.104187583850714e-05,392.88991706886077,6.830906169904202,
108,135.62060523033142,0.0040549502018842,2.0297401386591498e-05,389.94561619405056,6.753583685036656,
109,136.9862859249115,0.0038676528263795,1.93598682924885e-05,387.92100005405064,6.681459935213522,
110,138.36667251586914,0.0036887263122476,1.846423626369409e-05,384.5833960059493,6.591505783127239,
111,139.7434470653534,0.0035412469717362003,1.772601576245459e-05,382.22630833835456,6.523270729425392,
112,141.11286878585815,0.0034009571332435998,1.7023782930847845e-05,377.2745710643037,6.417715434438315,
113,142.53224539756775,0.003207021332436,1.6053020628927986e-05,374.57499597392405,6.333986653280031,
114,143.90982389450073,0.0030561950874831005,1.5298046910147392e-05,371.04784061772153,6.247453070639553,
115,145.29329085350037,0.0029039771197846,1.4536106803672896e-05,367.4016946987341,6.158824244423242,
116,146.68958687782288,0.0027347347240915,1.3688949461184804e-05,364.8730543611392,6.083164310905856,
117,148.07062005996704,0.0025242904441453,1.2635552549548495e-05,361.11400220658237,5.979862041589605,
118,149.47968745231628,0.0023631275908479,1.1828838050216992e-05,359.17475574430364,5.914844817821662,
119,150.8935010433197,0.0022271748317631,1.1148314841959792e-05,355.4048981656962,5.827985983315749,
120,152.28812432289124,0.0020440786675639,1.023181127175489e-05,349.9973229911393,5.706050254903369,
121,153.68744611740112,0.0018968090174966,9.494640394036976e-06,347.8178919826581,5.6405270227480155,
122,155.08621335029602,0.0017552878869448,8.786244224311398e-06,342.52327814810127,5.5295536915419845,
123,156.5378293991089,0.0015906542395693,7.962156367225858e-06,339.9419515136709,5.454130783300184,
124,157.94320607185364,0.0014226460296096,7.121176847391257e-06,336.0140771194938,5.357755762412117,
125,159.3419051170349,0.0012626814266487,6.320460292998715e-06,331.8455473124051,5.25956368479556,
126,160.7567102909088,0.0011361181695827,5.686937043262296e-06,328.1362111241773,5.175705844539801,
127,162.17410850524902,0.0009042942799461,4.526522659706031e-06,322.958171905443,5.046351147778284,
128,163.62585592269895,1.7344616419919248e-08,8.682079196631883e-11,355.226469439,5.328835271502233,
129,165.086936712265,5.121265141318977e-09,2.5635177708673308e-11,344.0933273723038,5.1618218023223745,
130,166.54833674430847,4.707267833109018e-09,2.3562858994628182e-11,332.9825339629113,4.995146222849123,
131,168.0553593635559,4.282772543741588e-09,2.143799123648788e-11,321.0778739633166,4.816561671459252,
132,169.54018902778623,4.061305518169583e-09,2.0329408517404388e-11,309.4583819212785,4.642255033388811,
133,170.97268557548523,3.973889636608345e-09,1.9891836669308878e-11,298.1884932221772,4.473192902832483,
134,172.4118106365204,3.892059219380888e-09,1.948222360750552e-11,287.29351116817725,4.309754831625749,
135,173.85585713386536,3.9244952893674295e-09,1.9644586679700456e-11,276.53124492275947,4.148307685301926,
136,175.30632090568542,3.972476446837146e-09,1.9884762759524434e-11,264.65913950494934,3.970211597769469,
137,176.76748943328855,3.918169582772544e-09,1.961292251209396e-11,253.5818317476456,3.804038424204637,
138,178.21635341644287,3.813795423956931e-09,1.9090463746587864e-11,241.9439359583924,3.6294557335243804,
139,179.69210767745972,3.657200538358008e-09,1.8306607171909433e-11,230.6205807796962,3.459591524975184,
140,181.1608145236969,3.5930686406460293e-09,1.7985586408838993e-11,218.9928093233291,3.285160720638771,
141,182.6353285312653,3.490107671601615e-09,1.7470201553124633e-11,207.8068396938354,3.11735747527575,
142,184.09952807426453,3.554979811574697e-09,1.7794927697509057e-11,196.7981085311013,2.9522130610506476,
143,185.5804817676544,3.4146029609690443e-09,1.7092252658935847e-11,185.31006444077212,2.7798783210641074,
144,187.0566041469574,3.4731493943472412e-09,1.7385314635713116e-11,174.17797541279748,2.6128833866108754,
145,188.52041363716123,3.401951547779273e-09,1.7028924323724326e-11,162.65019595446842,2.4399525829380204,
146,189.99160623550412,3.3885598923283983e-09,1.6961890607197293e-11,150.95695064891135,2.2645396021146333,
147,191.4629774093628,3.3314266487213997e-09,1.667590254020565e-11,139.173467273481,2.0877729301511354,
148,192.9412491321564,3.289098250336473e-09,1.646402209952578e-11,127.77176792399999,1.9167373215452064,
149,194.41708207130432,3.2933378196500674e-09,1.6485243828878433e-11,116.45927880163289,1.7470358136339839,
150,195.9092652797699,3.233378196500673e-09,1.6185107942320064e-11,104.60372258005064,1.5691876045816266,
151,197.412371635437,3.120524899057873e-09,1.5620205718127607e-11,93.28659806681014,1.3994165338980142,
152,198.92059683799744,3.150201884253028e-09,1.5768757823594604e-11,81.61086628355699,1.2242659366820967,
153,200.44536542892456,3.143135935397039e-09,1.5733388274673864e-11,68.96424274013924,1.0345507385626225,
154,201.9949038028717,2.975302826379542e-09,1.4893277274600047e-11,57.652385976088595,0.8648586784601475,
155,203.5556044578552,2.6071332436069982e-09,1.3050355349462919e-11,45.17071997992405,0.6776179697076913,
156,205.1062750816345,3.134656796769852e-09,1.5690944815969e-11,33.74629776565823,0.50623744184058,
157,206.64433121681213,2.9012113055181704e-09,1.4522402290208658e-11,21.57329801686076,0.3236271435209663,
158,208.19647979736328,3.143808882907133e-09,1.5736756803142502e-11,10.580690844405062,0.15872431873344947,
159,209.73926663398743,3.345491251682368e-09,1.6746304785201144e-11,26.45978971403797,0.3969307396989757,
160,211.2861144542694,3.088829071332436e-09,1.546154802725505e-11,26.496382141670892,0.39747961474082566,
161,212.85553097724917,3.1015477792732167e-09,1.5525213215312147e-11,26.58339950122785,0.3987849869827221,
162,214.3914270401001,3.022543741588156e-09,1.512974797309605e-11,25.05471542986076,0.37585279320122844,
163,215.93243980407715,3.0937415881561242e-09,1.5486138285076043e-11,44.97296169598733,0.6746514561757638,
164,217.5412404537201,3.1642664872139967e-09,1.5839160068589277e-11,56.282823348392405,0.8443135654123148,
165,219.1327917575836,3.1304172274562582e-09,1.5669723086616574e-11,68.67723940769619,1.030245326189703,
166,220.7002859115601,3.1283310901749663e-09,1.5659280648363795e-11,81.60506281448102,1.2241788725001006,
167,222.29810667037964,3.120524899057873e-09,1.5620205718127607e-11,93.13657742510128,1.3971660363300435,
168,223.85622453689572,3.1219380888290713e-09,1.5627279627911745e-11,105.54030658473418,1.5832375131402583,
169,225.40988063812256,3.072611036339165e-09,1.5380366491161166e-11,117.928348322519,1.7690736476589732,
170,227.0016384124756,3.0951547779273213e-09,1.5493212194860157e-11,129.76007324334176,1.946564349003948,
171,228.5552372932434,3.068371467025572e-09,1.5359144761808845e-11,141.66155814020252,2.125097276897437,
172,230.1119441986084,3.069044414535666e-09,1.5362513290277464e-11,154.53069517602535,2.3181500686952923,
173,231.6734962463379,3.044414535666218e-09,1.523922514832599e-11,166.29651034063298,2.4946516776656464,
174,233.2628083229065,3.0711978465679677e-09,1.537329258137706e-11,178.2785127903544,2.674396371722915,
175,234.83160853385925,3.074697173620457e-09,1.5390808929413903e-11,190.7699548731645,2.8617832780181742,
176,236.38946723937988,3.0366083445491252e-09,1.5200150218090055e-11,203.4806799594177,3.0524596882289754,
177,237.97258400917053,3.170592193808883e-09,1.5870824236194558e-11,214.99624515018988,3.2252072769492677,
178,239.5542857646942,3.085262449528937e-09,1.544369482637133e-11,227.61983748894932,3.4145765788727105,
179,241.1432518959045,3.28135935397039e-09,1.6425284022136038e-11,239.8079770792532,3.5974136198419577,
180,242.74745535850525,2.9294751009421267e-09,1.466388048588901e-11,252.0331803101519,3.7808065385858116,
181,244.38509225845337,2.8419919246298787e-09,1.4225971784974805e-11,264.8826264307848,3.9735639229265787,
182,245.95601272583008,3.0359353970390313e-09,1.5196781689621436e-11,277.0570110173924,4.1561946215410135,
183,247.5430028438568,2.9534320323014803e-09,1.478380009937073e-11,289.2106468838988,4.338514002357807,
184,249.10619282722476,3.0154777927321667e-09,1.5094378424175653e-11,301.37944613063297,4.521060884642107,
185,250.6960499286652,2.9252355316285324e-09,1.464265875653693e-11,313.92261859998735,4.709223789093658,
186,252.2645649909973,2.9548452220726787e-09,1.4790874009154778e-11,326.0556530491013,4.891234148450621,
187,253.84826827049253,2.935800807537012e-09,1.469554465349371e-11,338.4984826777974,5.077891803466474,
188,255.43048214912412,2.9209959623149393e-09,1.4621437027184867e-11,350.73777489096193,5.261496149313151,
189,257.0188038349152,2.911843876177658e-09,1.457562504001217e-11,363.09417070240505,5.446857193585932,
190,258.610702753067,2.9040376850605655e-09,1.4536550109776672e-11,375.37070418802534,5.631020205617418,
191,260.2162916660309,0.0011518893001345,5.7658807913201035e-06,332.9388412292405,5.2512668409742735,
192,261.7830533981323,0.0012952594885598,6.483532578988254e-06,337.291421266709,5.348520697526195,
