,Tiempo [s],Corriente [A],Err corriente [A],Tension [V],Err tension [V],Hora
0,0.0,4.829273216689097e-09,2.4173573206031527e-11,101.28770199448101,1.5194434973200504,9:44:07
1,1.5898051261901855,4.929407806191117e-09,2.4674810242198194e-11,113.08381465279744,1.6963999874096682,
2,2.7746968269348145,5.1734185733512786e-09,2.5896238665011348e-11,122.48305990641771,1.8374004957623067,
3,4.022521257400513,4.753095558546433e-09,2.3792255783357e-11,131.79607817469625,1.9771033896687402,
4,5.177881717681885,4.753835800807537e-09,2.3795961164672744e-11,141.08668631622783,2.1164738723172496,
5,6.336261987686157,4.813055181695827e-09,2.409239166993204e-11,149.78731408470884,2.246993940990453,
6,7.493977785110474,4.846904441453567e-09,2.4261828651915643e-11,158.46160210221512,2.37711887553588,
7,8.65338397026062,4.7707267833109015e-09,2.3880511229240987e-11,167.82884814763293,2.5176390033075036,
8,9.80278491973877,4.693203230148048e-09,2.349245674962922e-11,177.16446200456963,2.6576846092727116,
9,10.96310806274414,4.715746971736204e-09,2.36053024533357e-11,185.7815760393165,2.7869518616453957,
10,12.1156747341156,4.527456258411844e-09,2.2662788187753145e-11,194.66737563326586,2.9202496789503467,
11,13.279028415679932,4.599394347240915e-09,2.30228838810721e-11,203.94957443186078,3.059494027043332,
12,14.45144534111023,4.39414535666218e-09,2.199548269807768e-11,213.09324292793676,3.1966601894165514,
13,15.607763528823853,4.592328398384926e-09,2.298751433214926e-11,221.4866874129367,3.322572164197796,
14,16.769125938415527,4.4477792732166895e-09,2.2263954417043262e-11,230.9447198967595,3.4644541843160033,
15,17.939738750457764,4.637483176312247e-09,2.321354259240866e-11,240.50261903206328,3.607834400832343,
16,19.09923553466797,4.6783310901749665e-09,2.3418012270467663e-11,248.69073531822778,3.7306661664871874,
17,20.274454355239868,4.391318977119785e-09,2.198133487850861e-11,257.57688626879747,3.863969232564279,
18,21.43988585472107,4.5323687752355316e-09,2.2687378445575655e-11,267.6985895139367,4.015807189290093,
19,22.61159896850586,4.576110363391656e-09,2.290633279605018e-11,275.92233982811393,4.139173509582721,
20,23.77578806877136,4.58600269179004e-09,2.2955850164542143e-11,285.4026754802278,4.281390138924946,
21,24.940940141677856,4.183310901749663e-09,2.0940122728797683e-11,294.3520488305569,4.415641592518352,
22,26.1060471534729,4.278532974427994e-09,2.1416769507134344e-11,303.1942610856836,4.548285609643431,
23,27.27938961982727,4.109959623149394e-09,2.0572953125698287e-11,312.8069779408102,4.692488079120559,
24,28.447497844696045,4.489367429340511e-09,2.247212947641707e-11,321.4190023390127,4.821679060273062,
25,29.609278202056885,4.522543741588157e-09,2.2638197929930638e-11,330.93851434854435,4.964483388071004,
26,30.77095460891724,4.3243606998654115e-09,2.1646166295860796e-11,339.56363538835444,5.093870706106424,
27,31.931792497634888,3.9780619111709294e-09,1.991272154581533e-11,348.90264279498734,5.233967159551752,
28,33.10817122459412,4.194616419919246e-09,2.0996714007073627e-11,357.37264722951903,5.361027631287206,
29,34.28224277496338,4.4534320323014805e-09,2.2292250056181436e-11,367.0772693632658,5.506608887596248,
30,35.45550346374512,4.290511440107672e-09,2.1476729313879262e-11,375.8079362698354,5.637579530552969,
31,36.63081407546997,4.127590847913862e-09,2.066120857158082e-11,384.8097020277975,5.772616987774562,
32,37.813846588134766,4.402624495289368e-09,2.2037926156784887e-11,394.28575852611385,5.914769483682183,
33,38.99082803726196,4.200201884253028e-09,2.1024672793364727e-11,403.3072389643671,6.050102676409122,
34,40.182538986206055,3.920255720053835e-09,1.9623364950347162e-11,412.8215510187975,6.192828928721459,
35,41.37778329849243,4.145962314939434e-09,2.0753169398779078e-11,422.9253539650507,6.34439837794741,
36,42.56955313682556,4.432974427994617e-09,2.218984679072901e-11,431.133967938152,6.46753768884492,
37,43.77518630027771,4.054239569313593e-09,2.0294038968482073e-11,440.4347285176709,6.607060385885532,
38,44.97533583641052,3.762314939434724e-09,1.883277131872782e-11,449.76406941554416,6.7470118420004495,
39,46.17703223228455,3.979475100942127e-09,1.9919795455599777e-11,459.2117747805696,6.888739023340485,
40,47.38847899436951,3.7234858681022876e-09,1.8638407226080796e-11,468.35976298064566,7.025969975244827,
41,48.59545063972473,4.265814266487214e-09,2.1353104319073752e-11,477.745237831519,7.166763695264323,
42,49.813215255737305,4.24535666218035e-09,2.1250701053621846e-11,487.71708137868353,7.316353537272289,
43,51.03439974784851,3.887146702557201e-09,1.9457633349683486e-11,496.9263892537089,7.4545043364944235,
44,52.2553346157074,0.0008215735531628,4.112456959540095e-06,455.24973377101276,7.012446371318897,
45,53.66382598876953,0.001380701076716,6.91121778436448e-06,452.56456848392406,7.096805331810346,
46,54.875550508499146,0.0014775308882907,7.395907719834296e-06,458.7796769377215,7.211624690391266,
47,56.106385469436646,0.0015739156796769,7.878370068541942e-06,463.62168521240505,7.305746664705859,
48,57.35916519165039,0.0016429006056527,8.2236800384349e-06,469.7724663682279,7.413393902171347,
49,58.58410453796387,0.0017460989232839,8.740248077758947e-06,474.7356242327849,7.510852128504145,
50,59.8293354511261,0.0018462843876177,9.241735021224717e-06,479.9022717763291,7.610691329127365,
51,61.07987022399902,0.0019335298788694,9.67844981842533e-06,485.07367741746833,7.707717350829721,
52,62.32990431785584,0.0020292981830417,1.0157826287453323e-05,490.8565262125316,7.815815658415839,
53,63.59616088867188,0.0021323549798115,1.0673685931954908e-05,495.6646100992404,7.910916039238712,
54,64.84246706962585,0.0022112341184387,1.1068522232773667e-05,500.88656770075954,8.006835389862342,
55,66.07881593704224,0.0023095569986541,1.1560685851516677e-05,507.3885291616456,8.126290729035555,
56,67.31695556640625,0.0024360571332436,1.2193893136277396e-05,511.5894798060761,8.217509318810718,
57,68.55930256843567,0.0025394832436069,1.2711601411679844e-05,517.1956628099998,8.324664490038689,
58,69.80422306060791,0.0026185137281292,1.310719528737081e-05,521.2624741787344,8.403288973629538,
59,71.04397320747375,0.0027221952220726,1.3626181907210218e-05,526.3752135272151,8.50309881696965,
60,72.29079580307007,0.0028109563257065,1.4070483232317672e-05,531.9321231358228,8.606245729228068,
61,73.53967356681824,0.0029220905787347997,1.4626775277636977e-05,537.1770253531646,8.709699534126237,
62,74.79355525970459,0.0030390849932705,1.5212400864524452e-05,541.4984234992405,8.800605986732801,
63,76.05610251426697,0.0031403800134589,1.571944178508488e-05,546.3151491687341,8.895443275378078,
64,77.32711172103882,0.0032620146702556996,1.6328294503013105e-05,551.0552082368356,8.993664549258835,
65,78.59478807449341,0.0033480978465679,1.675919123298979e-05,557.0559687525316,9.102872809574611,
66,79.89982509613037,0.0034754837146702,1.7396832132896305e-05,560.4631427201264,9.182381228754343,
67,81.17887496948242,0.0035901547779273,1.7970827985480006e-05,565.0367956164557,9.276553894938097,
68,82.4553234577179,0.0037067004710632,1.8554207458874368e-05,570.2697747269619,9.381035149873954,
69,83.74965906143188,0.0038246911843876,1.9144820104889094e-05,575.1829999362025,9.48104182725247,
70,85.05103254318237,0.0038991354643337,1.9517457339810655e-05,580.9365516882278,9.583947131254453,
71,86.32187104225159,0.0040316090174966,2.0180565084107446e-05,585.6009506258226,9.683449601570672,
72,87.62821197509766,0.0040479057873485,2.0262139964812344e-05,581.2005830382279,9.621071558693021,
73,88.92347645759583,0.0039288554508748,1.9666223284146473e-05,576.5894994172153,9.525361164374083,
74,90.23511672019958,0.0038191130551816,1.9116898300220367e-05,571.6297833322785,9.426495768022379,
75,91.54193449020386,0.0036933975100942,1.848761834557585e-05,567.3073848854433,9.333630207486713,
76,92.8532063961029,0.0035881277254374,1.7960681400202743e-05,561.5326934963291,9.223536212994103,
77,94.15864849090576,0.0034959485195154,1.749927047062012e-05,556.7127432351896,9.130682632584966,
78,95.46403002738953,0.0033776067294751,1.690690047996115e-05,551.9572540982278,9.032963928393148,
79,96.76757717132568,0.0032496271197846,1.6266287555557317e-05,546.1657893367088,8.91755587722551,
80,98.10726118087769,0.0031547481830417,1.5791362891556667e-05,540.8270630774684,8.816318203887851,
81,99.41376042366028,0.0030517173620457,1.527563327102107e-05,535.2521381094936,8.709720057019982,
82,100.73078083992004,0.0029256633916554,1.4644659299466303e-05,530.1066236677214,8.604431311450156,
83,102.0472857952118,0.0028195050471063,1.4113274591262146e-05,524.9057359886076,8.50274699940002,
84,103.38824772834778,0.0027062080753701,1.3546156871763325e-05,519.1301633830379,8.390850380511587,
85,104.72118639945984,0.0026176623822341,1.3102933802397867e-05,514.113507893038,8.29585595951121,
86,106.04407906532288,0.0025221536339165,1.262485656248557e-05,508.73021389607607,8.19380932044169,
87,107.3850712776184,0.0024234317631224,1.2130695762144264e-05,503.4794604617723,8.093034688263971,
88,108.72055864334106,0.0023142162180349005,1.1584007974159434e-05,497.06806305670904,7.972509745907531,
89,110.04776763916016,0.0021792272543741,1.0908309126646797e-05,491.74708079354434,7.862596997609625,
90,111.38377952575684,0.0021062753028263,1.0543141869651549e-05,486.21612269898736,7.763363540201171,
91,112.71132922172546,0.0019852480484522,9.937329556700624e-06,480.93447282670877,7.657153147014583,
92,114.0459725856781,0.0019038246298788,9.529757644163881e-06,474.88617240151893,7.548270477678563,
93,115.37412858009338,0.0017845133243607,8.932534660539932e-06,468.9811059044304,7.433090590112371,
94,116.70900893211363,0.0016926506056527,8.472707934880003e-06,462.9971589908861,7.322846191862938,
95,118.04679536819458,0.0015848270524899,7.932987881988167e-06,456.6854823513924,7.204127485751576,
96,119.3918023109436,0.0014988628532974,7.502686702199301e-06,451.43648486911394,7.106223115874996,
97,120.73454189300536,0.001391767294751,6.966610688864158e-06,446.09578050405054,7.002232465083602,
98,122.08485388755798,0.0011257787348585998,5.63518211502563e-06,449.34277434860763,6.991647638643613,
99,123.43613958358765,0.000830051884253,4.154895973746278e-06,484.5742175249367,7.454239458190655,
100,124.79456233978271,5.984387617765814e-09,2.995565232288059e-11,476.32082258351886,7.145396107900498,
101,126.17043018341064,4.651547779273217e-09,2.328394483740754e-11,465.88419265394936,6.988833600150841,
102,127.53052163124084,4.595154777927322e-09,2.300166215171839e-11,455.68762270612655,6.835872570210881,
103,128.89887142181396,3.792597577388964e-09,1.89843550998219e-11,444.3533649438987,6.665844665580521,
104,130.3292372226715,4.322207267833109e-09,2.1635387004760572e-11,433.23138291275956,6.499001453447003,
105,131.71107625961304,3.5902422611036342e-09,1.797143858927033e-11,422.8194440745696,6.342809476205708,
106,133.10815382003784,4.153701211305518e-09,2.07919074761703e-11,411.8554476380253,6.178336248718193,
107,134.49738883972168,3.609959623149394e-09,1.8070136473404146e-11,401.0636680178988,6.016446237244937,
108,135.89500975608826,3.936473755047106e-09,1.970454648644469e-11,389.99047673868336,5.850334900776892,
109,137.29077553749084,3.282772543741588e-09,1.6432357931920253e-11,379.73445629951885,5.696481907621141,
110,138.67236042022705,3.52321668909825e-09,1.763593315378543e-11,368.21250005917733,5.52363852880927,
111,140.0985288619995,3.2940107671601614e-09,1.6488612357347104e-11,357.02641203112654,5.355833479180824,
112,141.51111578941345,3.694616419919246e-09,1.8493897354771528e-11,346.83530231762023,5.202954461305576,
113,142.92718267440796,3.551413189771198e-09,1.777707449662483e-11,336.183975559924,5.043171503798862,
114,144.3510890007019,3.581090174966352e-09,1.792562660209562e-11,324.75016183373424,4.871650323494253,
115,145.74724960327148,3.577523553162853e-09,1.7907773401211364e-11,313.4073308368608,4.701493987970556,
116,147.19376707077026,3.4195827725437413e-09,1.7117179769604216e-11,302.60589071702526,4.539459143191018,
117,148.60023427009585,3.280619111709286e-09,1.6421578640820497e-11,291.78755720696205,4.377170881131526,
118,150.06509518623352,3.5027590847913863e-09,1.753352988833645e-11,280.13700586912654,4.20239841453353,
119,151.475079536438,3.431561238223418e-09,1.7177139576347093e-11,269.9525182672532,4.049618631256581,
120,152.90793681144714,3.017563930013459e-09,1.510482086242834e-11,258.1912581857089,3.8731852563240667,
121,154.3410496711731,3.4153432032301483e-09,1.7095958040251417e-11,246.8768278883797,3.703455055488605,
122,155.7677342891693,2.945693135935397e-09,1.4745062021981947e-11,236.35416695548105,3.545602169912791,
123,157.1809310913086,3.221399730820996e-09,1.6125148135577908e-11,224.63481777506325,3.3697976634924762,
124,158.65878653526306,3.189636608344549e-09,1.5966153591857354e-11,213.77516289465825,3.2068895542479012,
125,160.0760293006897,3.287012113055181e-09,1.645357966127289e-11,202.45925003044303,3.0371370461308396,
126,161.4930338859558,2.840578734858681e-09,1.4218897875190836e-11,191.64638811469626,2.8749307961360575,
127,162.92758011817932,2.8413189771197847e-09,1.422260325650625e-11,180.91602790002528,2.713962272221886,
128,164.3608157634735,3.287685060565276e-09,1.6456948189741568e-11,169.2095346271519,2.5383506581777717,
129,165.79876136779785,2.8320995962314942e-09,1.4176454416487041e-11,158.47245675234174,2.377281259424007,
130,167.23222994804382,2.6840511440107673e-09,1.343537815341085e-11,146.78510690107595,2.20195668760638,
131,168.6814045906067,3.3849932705248992e-09,1.694403740631322e-11,135.88909634836713,2.0385033621556086,
132,170.14091849327087,3.279205921938089e-09,1.641450473103629e-11,124.62501390315188,1.8695320668477375,
133,171.604252576828,2.6099596231493946e-09,1.3064503169030497e-11,113.38140837372151,1.7008637489937768,
134,173.08281564712524,2.67207267833109e-09,1.337541834667157e-11,101.71003770126582,1.5257785811339222,
135,174.6024341583252,2.638896366083445e-09,1.320934989317502e-11,90.23561147140506,1.3536478053985919,
136,176.0845012664795,2.7757065948855992e-09,1.3894171730823027e-11,78.37755826887341,1.1757621823674977,
137,177.57964968681335,2.583916554508748e-09,1.2934141117300872e-11,66.72363992741772,1.0009387647367871,
138,179.0699644088745,2.864535666218035e-09,1.4338817488671588e-11,54.98064797631644,0.8247792366808601,
139,180.56785464286804,2.5782637954239567e-09,1.2905845478165815e-11,43.361088012759495,0.6504712167002409,
140,182.07587432861328,2.767227456258412e-09,1.3851728272119508e-11,31.89420844386076,0.47845369985275593,
141,183.5775866508484,2.8018169582772544e-09,1.4024870635402346e-11,20.28405683649367,0.3042868885275256,
142,185.0787808895111,2.651615074024226e-09,1.32730150812294e-11,10.062181422481014,0.15094591810899494,
143,186.61298608779907,2.9773889636608343e-09,1.49037197128527e-11,26.484195611430373,0.39729677667814445,
144,188.12146425247192,2.593741588156124e-09,1.2983321632940422e-11,26.52187130367089,0.3978618737388327,
145,189.6263084411621,3.3793405114401074e-09,1.69157417671762e-11,26.613610528746843,0.39923825216834435,
146,191.15771317481995,3.02321668909825e-09,1.5133116501564663e-11,24.940464431392407,0.37413888524324707,
147,192.668842792511,2.9781292059219383e-09,1.490742509416816e-11,45.07462712336709,0.6761765391783686,
148,194.1908733844757,2.9294751009421267e-09,1.466388048588901e-11,56.08224823896203,0.8413046351557,
149,195.772038936615,3.4224091520861364e-09,1.7131327589172756e-11,68.15154778236709,1.0223593583260755,
150,197.32590508461,3.068371467025572e-09,1.5359144761808845e-11,80.42864295616455,1.206531087468057,
151,198.8512914180756,3.158613728129206e-09,1.5810864429452657e-11,91.81266123377216,1.3773056433796922,
152,200.3819179534912,3.1092866756393e-09,1.5563951292701416e-11,103.78134714082282,1.556850915078255,
153,201.9298391342163,2.669919246298789e-09,1.3364639055572384e-11,116.04563106208862,1.7408304403610368,
154,203.479106426239,3.1121130551816956e-09,1.5578099112269674e-11,127.82450548020252,1.9175284115033215,
155,204.9966502189636,3.091655450874832e-09,1.547569584682329e-11,139.887497144962,2.0984841978747255,
156,206.49944639205933,2.6099596231493946e-09,1.3064503169030497e-11,151.25342806777215,2.268986952359759,
157,208.0295798778534,3.28485868102288e-09,1.6442800370173135e-11,163.3219638972531,2.4500298974013965,
158,209.5445251464844,3.0077388963660833e-09,1.5055640346786665e-11,174.16249971310123,2.6126511284436145,
159,211.10993027687076,2.9216689098250333e-09,1.4624805555653444e-11,187.239603680962,2.8088236591830595,
160,212.6259469985962,2.880753701211305e-09,1.4419999024764046e-11,198.80474645630383,2.9823149333061476,
161,214.19921493530276,3.2446837146702557e-09,1.624169922059361e-11,210.93604835741766,3.1642993768506615,
162,215.72501516342163,2.6325706594885598e-09,1.317768572557129e-11,222.15539933544304,3.3326032238566765,
163,217.274040222168,3.1790713324360703e-09,1.5913267694899536e-11,234.56449994798731,3.518755028457394,
164,218.8158402442932,3.0055854643337822e-09,1.5044861055687126e-11,246.86419421484808,3.7032654435949954,
165,220.36665558815,3.081090174966353e-09,1.5422809949865843e-11,258.7438860287975,3.8814753638732706,
166,221.90238976478577,3.0937415881561242e-09,1.5486138285076043e-11,270.70139641510127,4.0608526438806365,
167,223.4681544303894,3.165006729475101e-09,1.584286544990479e-11,283.16701126331645,4.247852125182203,
168,224.9992160797119,2.8060565275908482e-09,1.404609236475418e-11,294.52086917022785,4.4181737970283566,
169,226.5541999340057,2.5782637954239567e-09,1.2905845478165815e-11,306.8800017433291,4.60357584733349,
170,228.09523940086365,3.197442799461642e-09,1.600522852209373e-11,318.8729185066329,4.783484401496051,
171,229.6575849056244,3.23479138627187e-09,1.6192181852104253e-11,331.33238892239234,4.970391701236883,
172,231.2151701450348,3.251749663526245e-09,1.6277068769514593e-11,342.2659691391266,5.134408777620474,
173,232.76744985580444,3.3152086137281286e-09,1.6594721004110437e-11,354.80138708258244,5.322455388964268,
174,234.35139870643616,3.135397039030955e-09,1.5694650197284497e-11,367.4193279211646,5.5117398904128,
175,235.90312719345093,2.736204576043068e-09,1.3696439109720446e-11,379.8468883301266,5.698168403719852,
176,237.49500465393064,2.7905114401076715e-09,1.3968279357130846e-11,391.16728190110126,5.867988161729976,
177,239.06158876419067,2.526783310901749e-09,1.264815305032967e-11,403.8137618588354,6.057700766156297,
178,240.6387038230896,2.958344549125168e-09,1.4808390357191455e-11,415.6965536521644,6.2359572692873275,
179,242.20765376091003,3.2171601615074022e-09,1.6103926406225354e-11,428.1917969905949,6.423401255979627,
180,243.7888684272766,2.992193808882907e-09,1.4977827339161905e-11,440.44670615106327,6.607239828283118,
181,245.34721302986145,2.5148048452220724e-09,1.2588193243591584e-11,452.84431935734176,6.7932190794996865,
182,246.9185552597046,3.203768506056528e-09,1.6036892689699084e-11,464.89513088174675,6.973996141427531,
183,248.52578592300412,2.968236877523553e-09,1.4857907725679785e-11,477.0894436906075,7.156925692005771,
184,250.1289489269257,3.193203230148048e-09,1.598400679274121e-11,490.5804624572278,7.359307520188583,
185,251.70457220077515,0.0011025522880215002,5.518920141201772e-06,449.54783229189877,6.9895461598540995,
186,253.2797248363495,0.0013736067294751,6.87570642014232e-06,451.17373125911394,7.074359613416845,
187,254.87821221351624,0.0015110773216689,7.563827272345028e-06,456.9829771060761,7.192150108805023,
188,256.50243949890137,0.00160583512786,8.038145606968594e-06,465.13144410620254,7.335510321992412,
189,258.0910005569458,0.0017392986541049,8.70620874652464e-06,470.037513663038,7.438858821808722,
190,259.6780061721802,0.0018548929340511,9.284825839511342e-06,477.71406748367076,7.579784591816942,
191,261.25819873809814,0.0019778095558546,9.900095543347802e-06,484.9590818658229,7.715869026917672,
192,262.8803861141205,0.0021135265814266,1.0579438767267028e-05,491.33510731873406,7.841771010238528,
