,Tiempo [s],Corriente [A],Err corriente [A],Tension [V],Err tension [V],Hora
0,0.0,2.3652759084791392e-09,1.1839706217914927e-11,43.037617130430384,0.6456187007496117,10:17:07
1,1.5858619213104248,2.420255720053836e-09,1.2114914993780535e-11,30.662771614354426,0.4599805273485515,
2,2.923781394958496,2.3871467025572e-09,1.1949183393136566e-11,21.190321944556963,0.31788190805840694,
3,4.102535009384155,2.4604979811574693e-09,1.2316352996190409e-11,11.706792312658228,0.17561709918800877,
4,5.279714584350586,2.6106998654104973e-09,1.3068208550345813e-11,24.92544826922785,0.3739135320412037,
5,6.456871747970581,2.585329744279946e-09,1.2941215027084638e-11,26.56970461997469,0.3985794315326888,
6,7.635945320129394,2.568371467025572e-09,1.2856328109679519e-11,26.60787564273418,0.3991520409135267,
7,8.818051099777222,2.5662853297442803e-09,1.2845885671427317e-11,26.676193808898738,0.4001768985283509,
8,10.001900672912598,2.4901076716016148e-09,1.2464568248800453e-11,26.910558662379746,0.4036926479559343,
9,11.183735847473145,2.353970390309556e-09,1.1783114939646662e-11,42.48115722,0.6372711024530335,
10,12.365395545959473,2.622678331090175e-09,1.3128168357084655e-11,46.51204566307595,0.6977395388015853,
11,13.546778440475464,2.552153432032301e-09,1.2775146573589877e-11,55.48527764291139,0.8323492442321682,
12,14.73153305053711,2.5803499327052487e-09,1.2916287916418036e-11,65.02922295598735,0.9755203866444622,
13,15.923923254013062,2.5162180349932707e-09,1.2595267153375287e-11,73.59621549722785,1.1040359929940082,
14,17.1131272315979,2.6650067294751007e-09,1.3340048797752373e-11,82.7008441715443,1.2406168623415834,
15,18.30107021331787,2.497846567967698e-09,1.2503306326187271e-11,92.4039342143671,1.3861753315242242,
16,19.500721216201782,2.451278600269179e-09,1.2270204156173322e-11,101.49588994678484,1.5225660473183178,
17,20.682339429855347,2.468236877523553e-09,1.2355091073577063e-11,111.16999873921515,1.667689802481469,
18,21.874476194381717,2.6374831763122477e-09,1.3202275983391206e-11,120.19075200712659,1.8030124402162093,
19,23.063904523849487,2.5718707940780614e-09,1.2873844457715478e-11,129.69220243301268,1.945546085172312,
20,24.23794841766357,2.465410497981157e-09,1.2340943254009756e-11,138.51994100210126,2.0779690439115037,
21,25.400511980056763,2.466150740242261e-09,1.2344648635325006e-11,148.04845221730378,2.2209083635679594,
22,26.57114124298096,2.554239569313593e-09,1.2785589011842062e-11,156.1963414291899,2.343136684450665,
23,27.73531937599182,2.448519515477792e-09,1.225639318945289e-11,165.67497308740508,2.4853277260287006,
24,28.90565133094788,2.650201884253028e-09,1.3265941171445576e-11,175.05431899787342,2.6260294285115924,
25,30.072378158569336,2.4823687752355322e-09,1.2425830171413678e-11,183.30342851946835,2.749776120760349,
26,31.24773097038269,2.466823687752355e-09,1.2348017163793408e-11,192.46976048350635,2.887282305153859,
27,32.426822900772095,2.6537012113055183e-09,1.3283457519481718e-11,201.7868043934684,3.0270493981473092,
28,33.59956669807434,2.590242261103634e-09,1.2965805284904411e-11,210.77682550305062,3.161910693453902,
29,34.78634548187256,2.394885598923284e-09,1.1987921470522783e-11,220.1946651717468,3.303189760872356,
30,35.96158695220947,2.6001345895020192e-09,1.3015322653390848e-11,229.30770129200002,3.4398964916590673,
31,37.13685250282288,2.584589502018842e-09,1.293750964576933e-11,238.41138114591143,3.5764628177909934,
32,38.31907820701599,2.4879542395693133e-09,1.2453788957701518e-11,247.99484834659492,3.720226522721919,
33,39.50839424133301,2.6487886944818305e-09,1.3258867261661752e-11,256.12004832241774,3.8421144935360756,
34,40.70042252540589,2.5133916554508752e-09,1.2581119333807886e-11,265.9048557074556,3.988898538786162,
35,41.88810920715332,2.583916554508748e-09,1.2934141117300872e-11,274.94417646034185,4.124499418892317,
36,43.08198571205139,2.387819650067294e-09,1.1952551921604933e-11,284.09369453750634,4.2617533341747755,
37,44.279600858688354,2.4802153432032303e-09,1.2415050880314754e-11,293.8196077408355,4.407653945463801,
38,45.480963706970215,2.4061911170928667e-09,1.2044512748791426e-11,302.87572534349374,4.543506766632745,
39,46.68226337432861,2.521130551816958e-09,1.2619857411194832e-11,312.8568826897974,4.693236357198976,
40,47.88704442977905,2.595895020188425e-09,1.2994100924039507e-11,322.00536894120256,4.830474854213271,
41,49.09460759162903,2.497846567967698e-09,1.2503306326187271e-11,331.55005308529115,4.973656765557141,
42,50.30270981788635,2.638896366083445e-09,1.320934989317502e-11,340.7840644957468,5.112178259311766,
43,51.52044439315796,2.6353970390309557e-09,1.3191833545138912e-11,350.0799101105316,5.251627309518269,
44,52.74492168426514,2.613526244952893e-09,1.3082356369913397e-11,360.1534622176836,5.402742903978112,
45,53.96271991729736,2.562045760430686e-09,1.282466394207607e-11,369.1633175171139,5.5379017390554734,
46,55.18661117553711,2.4879542395693133e-09,1.2453788957701518e-11,378.4370664645696,5.677019296496417,
47,56.42343592643738,2.655114401076716e-09,1.3290531429265543e-11,387.8511175647468,5.818241611566091,
48,57.646591901779175,2.36386271870794e-09,1.1832632308131383e-11,397.8741146247722,5.968598758451489,
49,58.8887357711792,2.5162180349932707e-09,1.2595267153375287e-11,407.3818160886202,6.111225940189655,
50,60.12589550018311,2.6283310901749663e-09,1.315646399621987e-11,416.77460127831654,6.252129228327608,
51,61.36021184921265,2.532436069986541e-09,1.2676448689464537e-11,424.71475719622777,6.371241254775439,
52,62.59141111373901,0.0010222941453566,5.117181117273509e-06,387.47397386025335,6.0404713822361105,
53,63.797842264175415,0.0011524366756393,5.768620726406051e-06,391.0697551549368,6.123423643066404,
54,65.01723575592041,0.0012472909825033,6.24342210343319e-06,396.3675385708861,6.2240416282665265,
55,66.24839997291565,0.0013614604979811,6.814907415545617e-06,401.1439812817721,6.321144578656535,
56,67.47961020469666,0.0014548602960969,7.282428124152147e-06,406.24573641987337,6.418497664336136,
57,68.72408294677734,0.0015010883580079998,7.513826657106022e-06,412.745356209114,6.526304987223504,
58,69.96213388442993,0.0016649893674293,8.334247232008844e-06,416.5657261468354,6.62015173735121,
59,71.20389127731323,0.0017700065275908,8.85991964378084e-06,420.8794461131645,6.708273055579222,
60,72.45460772514343,0.0018753915208613,9.387433275761421e-06,426.16387025189874,6.8110381202760495,
61,73.70667695999146,0.0019587067294751,9.80447470577106e-06,431.074372812405,6.903274145824967,
62,74.96428489685059,0.0020581738896366,1.0302366116030087e-05,435.9379636411392,6.998407003795714,
63,76.21157932281494,0.002166704576043,1.0845625785085945e-05,441.2884384462025,7.102864142819359,
64,77.45283150672913,0.0023018131897711,1.1521923551283386e-05,445.6235344162025,7.198014065023586,
65,78.70402550697327,0.0024033742934051,1.2030296375376211e-05,449.7617298318987,7.282731884529108,
66,79.96535134315491,0.0024977866083445,1.2502885323876138e-05,455.52460066113935,7.3902282256235035,
67,81.22063827514648,0.0026135378869448,1.3082288287105564e-05,458.48119412759496,7.460383822094831,
68,82.48453974723816,0.0027180566621803,1.3605465990340037e-05,464.8196852378479,7.578768086722194,
69,83.74930238723755,0.0028259818304172,1.4145694686209764e-05,469.51772451797467,7.673302916390689,
70,85.01032590866089,0.0029516156123822,1.4774565368525077e-05,473.5060671702531,7.761139004141441,
71,86.28845262527466,0.0030513831763122,1.5273960475639456e-05,479.6676143741773,7.875809762584612,
72,87.55678200721741,0.0031950081426648,1.599288757609748e-05,482.4169426829112,7.949069686570766,
73,88.84056615829468,0.0033037683041722,1.6537295902473708e-05,487.528214686076,8.049989648831712,
74,90.1155309677124,0.0034357985868102,1.719818481809971e-05,491.8431551329113,8.144151001731819,
75,91.40804409980774,0.0035569076716016,1.780440674023024e-05,496.2719248673418,8.2375853980768,
76,92.68825435638428,0.0036703575370121,1.8372289782142943e-05,500.9250538536709,8.332678077141946,
77,93.98198294639587,0.0037985242934051,1.9013839485434214e-05,504.41989406696194,8.413675674569987,
78,95.27741074562071,0.0039151922611036,1.9597831014649945e-05,509.18146057088614,8.511112423638492,
79,96.56537175178528,0.0040308688425302,2.0176860074763052e-05,513.6574116379746,8.604043594180528,
80,97.87027311325072,0.0041677722072678,2.0862141621232622e-05,517.7920299391137,8.696586196387502,
81,99.1681694984436,0.004267087281292,2.1359271751273553e-05,522.1808172046833,8.784562523340623,
82,100.4586067199707,0.0044115255720053,2.2082270016649617e-05,526.3721461049367,8.87963552802938,
83,101.76126527786256,0.0045250119784656,2.265033596792444e-05,531.4249839487342,8.980732476026825,
84,103.068913936615,0.00467048512786,2.337851430727985e-05,534.6796208086075,9.061984645379285,
85,104.37324452400208,0.0048242306191117,2.4148100564050302e-05,539.1004771062026,9.162575588917267,
86,105.67437696456908,0.0049241260430686,2.4648135685507157e-05,543.8155612767086,9.2555761399476,
87,106.98904085159302,0.0049656954239569,2.4856214790615467e-05,539.9761441258229,9.207246771319472,
88,108.29725933074953,0.0048265947510094,2.4159934429244333e-05,535.8059056125317,9.113679999543368,
89,109.60831093788148,0.0047097501345895,2.3575058669686887e-05,530.6712591948101,9.010607215504242,
90,110.9367218017578,0.004564368371467,2.284733777216174e-05,527.8248866737976,8.935499881435893,
91,112.2540454864502,0.0044593042395693,2.2321430239331282e-05,522.79218549481,8.836582487650134,
92,113.5786519050598,0.004308900807537001,2.156857294692671e-05,519.0584681331645,8.747044475251048,
93,114.91282248497008,0.0042016525572005,2.1031732621726376e-05,514.761085596962,8.658670879980304,
94,116.2379846572876,0.0040517642664872,2.0281453913423156e-05,509.9750521697468,8.553461676036937,
95,117.55947470664978,0.0039239780619111,1.964180909492487e-05,505.3740775624052,8.455955542013266,
96,118.89281153678894,0.0037994523553162,1.9018484979011946e-05,500.97632099848107,8.362224752224913,
97,120.22190833091736,0.0036659744952893,1.8350350090479422e-05,496.540563014557,8.265928295699037,
98,121.56395292282104,0.0035248537012113,1.764395783934562e-05,492.09738282632924,8.167816747202181,
99,122.9109742641449,0.0034210357335127,1.7124288088407165e-05,487.90626887227836,8.081801985331852,
100,124.25272345542908,0.0033229427994616004,1.663327548493232e-05,482.1835169535444,7.974086997317924,
101,125.59932017326356,0.0031896523553162,1.5966078722685837e-05,477.4518867424051,7.873393875768361,
102,126.95211267471312,0.0030838098923282996,1.5436275186757285e-05,472.19384348835433,7.770922574028218,
103,128.30386662483215,0.0029170528263795,1.460155837569021e-05,468.07647788278484,7.6719838496240556,
104,129.65821027755737,0.0027856014804845,1.3943567377637755e-05,463.34671258683545,7.571728674339398,
105,131.00868606567383,0.00267658512786,1.3397876664628776e-05,458.27039869392416,7.47127601811564,
106,132.36087036132812,0.0025511700538358,1.277010074368901e-05,452.33846035037976,7.3543323741356454,
107,133.72924709320068,0.0024514870121129994,1.2271128719739694e-05,447.7490342303797,7.263264196321801,
108,135.09044814109802,0.0023314755720053,1.1670401152315213e-05,442.52816073544307,7.158191964042654,
109,136.4592101573944,0.0022047434051144,1.1036032409947965e-05,436.86170119063286,7.044937223741197,
110,137.82658076286316,0.0020765996635262,1.0394597909238131e-05,432.0270868407594,6.943846512973861,
111,139.19166469573975,0.0019887497981157,9.954857865295172e-06,426.0689147967087,6.834883306040739,
112,140.56958317756653,0.0018834462987886,9.427752158245201e-06,421.20924840253156,6.738508292734536,
113,141.9460277557373,0.0017558676312247,8.789146184080232e-06,415.6479683325316,6.626642674622087,
114,143.31644225120544,0.0016485568640646,8.251992925551792e-06,409.3813956851899,6.5087148917239475,
115,144.69327640533447,0.0015163360026917,7.590150051705504e-06,404.6733105946834,6.408613412759194,
116,146.0812747478485,0.0013922956931359,6.969255632347106e-06,399.47355582430384,6.302959882725324,
117,147.46661067008972,0.0013081381561238,6.547997855218981e-06,393.02250864594936,6.187426035732765,
118,148.853990316391,0.0011911775235531,5.962541366857775e-06,387.36440190822793,6.076474856193403,
119,150.2487678527832,0.0010737321668909,5.374658550439029e-06,383.3694273367087,5.990364639431597,
120,151.67093515396118,0.0008572777254374,4.29117725935632e-06,391.5254633144304,6.064463508107023,
121,153.08238339424133,8.869448183041723e-09,4.439720757495621e-11,406.8721511839241,6.103581759662115,
122,154.5032980442047,4.2326379542395704e-09,2.1187035865561322e-11,396.03055124781,5.940943470110435,
123,155.9168026447296,3.544414535666218e-09,1.7742041800550115e-11,385.61997851594936,5.784771995885316,
124,157.3296093940735,3.3547106325706594e-09,1.6792453625222154e-11,374.4696661145696,5.617503633208338,
125,158.75037026405334,3.2122476446837144e-09,1.607933614840415e-11,363.4078313489114,5.451562553786636,
126,160.16285872459412,3.0189771197846566e-09,1.511189477221242e-11,352.6946404767342,5.290851547755656,
127,161.57434248924255,2.881493943472409e-09,1.4423704406079474e-11,341.5837336178355,5.1241743280411125,
128,163.00220203399658,2.7467698519515478e-09,1.3749325006676251e-11,330.4453603827469,4.957085079713464,
129,164.42374110221863,2.713660834454912e-09,1.3583593406025141e-11,319.0067584753797,4.785492056840165,
130,165.84522247314453,2.6932032301480487e-09,1.348119014058249e-11,307.9457310164684,4.619563115204042,
131,167.2761948108673,2.651615074024226e-09,1.32730150812294e-11,297.3718267613038,4.460941612557759,
132,168.7018871307373,2.5126514131897713e-09,1.2577413952492615e-11,286.1281149454177,4.2922721557672645,
133,170.19347667694092,2.5034993270524904e-09,1.2531601965322023e-11,274.63335539800005,4.1198367049652616,
134,171.63509488105774,2.459757738896366e-09,1.2312647614875164e-11,263.6856597198988,3.955607873430587,
135,173.06903266906738,2.2467698519515474e-09,1.1246508354644297e-11,252.15596890970883,3.7826483655350818,
136,174.51809525489807,2.730551816958277e-09,1.3668143470584883e-11,240.58101170994937,3.6090099617679043,
137,175.96298170089722,2.306056527590848e-09,1.154327571270144e-11,229.57844368972158,3.443957893127665,
138,177.41306495666504,2.211507402422611e-09,1.106999746290704e-11,218.32516391953158,3.2751449152239265,
139,178.86425924301147,2.071197846567968e-09,1.0367659277286376e-11,207.5512664112405,3.113523247226402,
140,180.30778980255127,2.1593539703903102e-09,1.0808936506618609e-11,196.69663941212656,2.95069058908136,
141,181.75494170188904,2.226379542395693e-09,1.1144441942055617e-11,185.2370754416962,2.7787831319519634,
142,183.2167365550995,2.122678331090175e-09,1.0625351705101423e-11,173.383232142443,2.6009609647156395,
143,184.67449355125427,1.9957604306864067e-09,9.9900472360105e-12,162.19759089046835,2.4331626400765014,
144,186.13392519950867,2.229878869448183e-09,1.116195829009061e-11,150.38804734437974,2.256005098612593,
145,187.59549403190613,2.406864064602961e-09,1.2047881277259803e-11,139.59091026349367,2.094034879340047,
146,189.07015657424927,1.9619111709286673e-09,9.820610254066759e-12,128.16143347435445,1.922582497109669,
147,190.5408070087433,1.7693808882907131e-09,8.856874259387824e-12,116.2787693376329,1.744327605817595,
148,192.00994062423703,1.7333781965006731e-09,8.67665798636037e-12,105.16220806655696,1.577565252158803,
149,193.51503252983093,1.8553835800807534e-09,9.287372197583256e-12,93.38446896613924,1.4008844379747638,
150,195.016636133194,1.818034993270525e-09,9.10041886761407e-12,81.87216506007594,1.2281854487140542,
151,196.52490401268005,2.1050471063257068e-09,1.0537096259234997e-11,69.52652313205064,1.042985417443643,
152,198.02981305122373,2.0069986541049803e-09,1.0046301661427569e-11,58.78087202216456,0.8817871670390862,
153,199.5403451919556,2.086742934051144e-09,1.0445472284900778e-11,46.6765957814304,0.7002078772514501,
154,201.05321860313416,1.928061911170929e-09,9.651173272124705e-12,35.06852998270886,0.5260723125853574,
155,202.5647711753845,2.044414535666218e-09,1.0233591844254478e-11,23.07865616974684,0.34620921069566046,
156,204.07568764686584,1.9943472409152087e-09,9.982973326227528e-12,11.663313426886077,0.17496475751842114,
157,205.5980041027069,2.353970390309556e-09,1.1783114939646662e-11,26.453750264202537,0.39683991935690477,
158,207.11967587471008,2.061305518169582e-09,1.0318141908804635e-11,26.5590484273924,0.3984194584793713,
159,208.6412827968597,2.03028263795424e-09,1.0162852746423955e-11,26.63494760086076,0.3995580342505218,
160,210.16689348220825,2.0719380888290714e-09,1.0371364658601339e-11,26.98046516867089,0.40474123990974664,
161,211.69881796836853,2.197442799461642e-09,1.0999595217920587e-11,39.258980110075946,0.5889343742434209,
162,213.23011660575867,2.229138627187079e-09,1.1158252908775514e-11,53.10847897231646,0.7966942145696553,
163,214.7613468170166,2.138896366083445e-09,1.0706533241184978e-11,65.78646281894936,0.986879834832997,
164,216.2961139678955,2.3067294751009423e-09,1.1546644241169758e-11,76.18252067775947,1.1428337640654957,
165,217.83110785484317,2.330013458950202e-09,1.16631953261738e-11,88.58296929720254,1.328856033538486,
166,219.38665890693665,2.0352624495289366e-09,1.0187779857088011e-11,100.78605318807597,1.5119175139331131,
167,220.93074226379397,2.026043068640646e-09,1.0141631017074846e-11,113.08086186692408,1.696355044708337,
168,222.46996212005612,2.155114401076716e-09,1.0787714777268836e-11,125.52399544803795,1.8830176656630768,
169,224.02757596969604,2.131157469717362e-09,1.0667795163800672e-11,137.11920661062024,2.056956240739618,
170,225.542692899704,2.0557200538358007e-09,1.0290183122519087e-11,148.37044423934177,2.225738546131154,
171,227.0828607082367,2.219313593539704e-09,1.1109072393138844e-11,160.67080047429116,2.410258966740649,
172,228.6059377193451,2.0746971736204573e-09,1.0385175625320757e-11,172.14960952683546,2.5824551063378274,
173,230.14088368415835,2.1600269179004046e-09,1.0812305035086829e-11,183.9064133997216,2.7588215594255385,
174,231.682701587677,2.1057873485868107e-09,1.0540801640549994e-11,196.15278052964558,2.9425320288839516,
175,233.2135889530182,2.1177658142664875e-09,1.0600761447283642e-11,207.8820316849367,3.1184851411655212,
176,234.7624373435974,2.0740242261103634e-09,1.0381807096852607e-11,219.41607806227847,3.2915099306645352,
177,236.30751824378967,2.0557200538358007e-09,1.0290183122519087e-11,231.75046376579743,3.4765407943647886,
178,237.8491406440735,2.100807537012113e-09,1.051587452988549e-11,243.99536425693668,3.66022928458986,
179,239.40507769584656,2.0253701211305517e-09,1.0138262488606734e-11,256.2479641107216,3.844033247802046,
180,240.9457426071167,2.165679676985195e-09,1.0840600674219886e-11,268.5150374415443,4.028054378961581,
181,242.4981150627136,1.947779273216689e-09,9.74987115623786e-12,280.2590092449873,4.204228267721351,
182,244.06587147712708,1.9082772543741587e-09,9.552138535165348e-12,292.1088856118607,4.381990894198696,
183,245.62278127670288,1.9407133243606996e-09,9.714501607323518e-12,304.46162883239236,4.567297154412247,
184,247.1792504787445,2.167092866756393e-09,1.0847674584003159e-11,316.4055778199114,4.746471044499132,
185,248.74360728263852,2.198115746971736e-09,1.1002963746388834e-11,328.8131115891646,4.932599229625214,
186,250.305406332016,2.208008075370121e-09,1.1052481114872115e-11,340.71573308229114,5.111153108502884,
187,251.8769099712372,1.935800807537012e-09,9.689911349506929e-12,352.83644934134173,5.292978612665991,
188,253.45298624038696,2.071197846567968e-09,1.0367659277286376e-11,365.1163046503543,5.47719148803282,
189,255.02084732055664,2.067698519515477e-09,1.0350142929252002e-11,377.2075387158988,5.658574783143008,
190,256.60181617736816,2.026043068640646e-09,1.0141631017074846e-11,389.1386223088228,5.837555616829563,
191,258.17696952819824,2.0726110363391662e-09,1.0374733187069492e-11,401.6824159860633,6.025727870656491,
