,Tiempo [s],Corriente [A],Err corriente [A],Tension [V],Err tension [V],Hora
0,0.0,1.4886944818304172e-09,7.451861035550563e-12,183.79264364483547,2.757114724334781,11:00:59
1,1.354067087173462,1.5549798115746972e-09,7.783661089590245e-12,194.18437531540505,2.913003420960778,
2,2.4830007553100586,1.733378196500673e-09,8.676657986360368e-12,202.5990212185823,3.0392334385289717,
3,3.60724139213562,1.7714670255720055e-09,8.867316697638095e-12,210.87638126701265,3.1634039691281526,
4,4.7291765213012695,1.6635935397039031e-09,8.327341584257219e-12,219.48965938798736,3.2926136490314097,
5,5.850729465484619,1.481628532974428e-09,7.416491486643616e-12,229.2974508394557,3.439742473001541,
6,6.980337858200073,1.7249663526244954e-09,8.634551380513223e-12,237.4067077434557,3.561391296635001,
7,8.109153270721436,1.4703903095558545e-09,7.360237061239585e-12,246.53117677962024,3.6982694326369563,
8,9.239225387573242,1.7129878869448183e-09,8.57459157378715e-12,255.05284421639237,3.8261049183839235,
9,10.370185613632202,1.5232839838492598e-09,7.62500339877361e-12,264.21703569450636,3.9635789540480664,
10,11.499155044555664,1.665006729475101e-09,8.334415494039333e-12,272.8226344029367,4.09267348901247,
11,12.626458644866943,1.4718034993270525e-09,7.367310971020908e-12,281.9605295412785,4.229753046645356,
12,13.757222652435305,1.6579407806191117e-09,8.299045945128819e-12,290.4308405812278,4.356818111056431,
13,14.884870052337646,1.5310228802153432e-09,7.663741476148938e-12,299.0859307948228,4.486655019230596,
14,16.01455068588257,1.6593539703903095e-09,8.306119854910912e-12,307.55268912731646,4.613666775799609,
15,17.143731117248535,1.557806191117093e-09,7.797808909153658e-12,316.36378599834177,4.745843980252355,
16,18.26452922821045,1.5951547779273216e-09,7.984762239100917e-12,325.39586890270886,4.881336276384831,
17,19.388761520385746,1.586742934051144e-09,7.942655633256598e-12,334.1009369007468,5.011922938854579,
18,20.51813268661499,1.6374831763122476e-09,8.196642679712404e-12,342.3818284595317,5.136146449247564,
19,21.64755487442017,1.580349932705249e-09,7.910654612815047e-12,351.67471174359497,5.275551048914992,
20,22.775367259979248,1.6565275908479138e-09,8.29197203534673e-12,360.00620571070885,5.400533662978938,
21,23.903888463974,1.655114401076716e-09,8.284898125564648e-12,368.6686854775317,5.530481451464591,
22,25.037862300872803,1.6304172274562584e-09,8.161273130802371e-12,377.84981134807595,5.668209560505207,
23,26.171793699264526,0.0008923858681022881,4.466914081787106e-06,342.88563458518985,5.3426328505710385,
24,27.50074052810669,0.0011095586810228803,5.5539912429264235e-06,347.1124403848101,5.45445188929052,
25,28.634135723114014,0.0012213092193808883,6.113368157376726e-06,348.1347809929114,5.494699484300517,
26,29.77098107337952,0.0012982392328398384,6.498447944817446e-06,352.16883023139235,5.572364260416003,
27,30.91228580474853,0.0014208582099596231,7.112227762634334e-06,357.52304674924056,5.680018065097157,
28,32.057345390319824,0.0015115247644683716,7.566066985694412e-06,360.2291036593671,5.740823459627619,
29,33.2054545879364,0.0016519228802153432,8.268841808394401e-06,363.97238609481013,5.828274580172551,
30,34.35556745529175,0.0017863377523553163,8.941666991509075e-06,367.6600969851899,5.913558286131974,
31,35.50834965705872,0.0019285695154777928,9.653620293580803e-06,371.2146136246835,5.998586444517989,
32,36.66913962364197,0.002012943741588156,1.0075962726594819e-05,374.4226487983544,6.065519453691357,
33,37.83171534538269,0.0021197816958277256,1.0610749279454681e-05,378.2253269474683,6.146380411157834,
34,38.985300064086914,0.0022567019515477792,1.1296115375187155e-05,381.30425220911394,6.223090087350574,
35,40.14125275611877,0.002398378532974428,1.200528966761352e-05,384.1001592074683,6.296614416717579,
36,41.30041575431824,0.0025072514131897713,1.2550262217160186e-05,387.89941958278484,6.377877727397729,
37,42.463791370391846,0.0026211803499327055,1.3120543291759586e-05,391.91393347481016,6.463497192078329,
38,43.61907339096069,0.0027287598250336476,1.365904159095669e-05,395.7135963489873,6.5444782178329355,
39,44.77776956558228,0.0028779045760430684,1.440559844743317e-05,397.2379096748101,6.600591882814611,
40,45.93924522399902,0.002978519179004038,1.4909233481142303e-05,401.21587038936707,6.6826949971842575,
41,47.10633182525635,0.003146006729475101,1.5747606795203646e-05,404.4324914160759,6.768284294265132,
42,48.2776951789856,0.0032624452893674294,1.6330450003949046e-05,407.91857662177216,6.846536126439503,
43,49.44760465621948,0.0033863777927321667,1.695080479016204e-05,410.14733678278486,6.907597084649191,
44,50.62129735946655,0.003522850605652759,1.7633931172545174e-05,413.5160264174684,6.988553843977568,
45,51.8014235496521,0.003678337012113055,1.8412231729864087e-05,416.3634727927848,7.0659297977513384,
46,52.98507332801819,0.0037835031628532974,1.893864992677004e-05,419.0176281663292,7.129188840532412,
47,54.16839671134949,0.003909079407806191,1.956723260263123e-05,422.8668043662025,7.214924441605371,
48,55.355483293533325,0.004080801749663527,2.0426803528568096e-05,425.4200202002532,7.291505868512495,
49,56.547130823135376,0.004210436271870794,2.10757002596624e-05,428.8441960753165,7.371770611211297,
50,57.736388206481934,0.004351538829071332,2.1782001224540288e-05,432.2690748427848,7.454602334756359,
51,58.92338371276856,0.0044920855316285336,2.2485519811276277e-05,434.9824469251899,7.5266366791364945,
52,60.11089015007019,0.00459622530282638,2.3006800377259674e-05,437.6309483939241,7.589582109880829,
53,61.3022141456604,0.004774712045760431,2.390023109356529e-05,440.9799858967089,7.679609747147277,
54,62.49971580505371,0.004894111238223419,2.449789400283769e-05,443.10851392962036,7.738156548236845,
55,63.70227122306824,0.0050391201884253025,2.5223748753279663e-05,446.03729282658225,7.8144169772831775,
56,64.9072654247284,0.005158564602960969,2.5821638025519538e-05,449.6855504681012,7.8957716602883,
57,66.11155009269714,0.005343483580080754,2.6747265842301853e-05,451.46646170189877,7.963709354619542,
58,67.32083320617676,0.00546233263795424,2.7342175005652937e-05,454.81046980354427,8.040367207742394,
59,68.53220558166504,0.005610615410497981,2.8084417154911543e-05,457.0207797587342,8.106579522670158,
60,69.74792885780334,0.005759605181695828,2.8830198246634898e-05,460.38090516708854,8.19019807708528,
61,70.96789622306824,0.005895146298788694,2.9508660945558635e-05,463.5547087751899,8.268023624109928,
62,72.19140601158142,0.0060481487213997305,3.0274527708449714e-05,466.0998491636709,8.340310903052202,
63,73.41656017303467,0.006211499596231494,3.109219453743105e-05,467.6327683029114,8.399720489097827,
64,74.64693307876587,0.006357495020188425,3.182298716695075e-05,470.805325420633,8.479857796685883,
65,75.87197613716125,0.00648982133243607,3.248535788420441e-05,473.82229213924035,8.55461396110233,
66,77.10249280929565,0.006475441184387617,3.2413376818494345e-05,470.2231574089874,8.49741694541159,
67,78.33476066589355,0.006343722611036339,3.1754048190465833e-05,467.468531893038,8.426731695436612,
68,79.57221984863281,0.006169606662180351,3.088249585918643e-05,464.9593480141771,8.35027721174238,
69,80.8127236366272,0.006033341520861373,3.0200408994835482e-05,462.1067211035443,8.277108308038525,
70,82.05812859535217,0.005833643405114401,2.9200802930744643e-05,459.0213633541772,8.186307776656621,
71,83.29773020744324,0.005705289367429341,2.855831577486633e-05,456.38090467443027,8.118085187527283,
72,84.53950357437134,0.005581976850605653,2.7941064384515493e-05,453.57323467329115,8.048478072789056,
73,85.7871949672699,0.0054280498654104975,2.7170569644228335e-05,449.5320049031646,7.953541525467824,
74,87.03963589668274,0.005304642866756393,2.6552845316963304e-05,447.5040136920253,7.895609483720807,
75,88.29825639724731,0.005151578532974428,2.578666865239056e-05,443.61979259632915,7.803220560063524,
76,89.55697822570801,0.004981127456258411,2.4933461153267096e-05,441.5791134251899,7.734611191836087,
77,90.81538510322572,0.004843659084791387,2.4245351417102933e-05,437.9134880069621,7.648978098995885,
78,92.07865238189696,0.004693435060565276,2.3493392165875864e-05,435.2740960772152,7.575896292345103,
79,93.33986496925354,0.004565201480484522,2.285150797087818e-05,432.83943034873414,7.510787704585129,
80,94.61971282958984,0.004404949798115747,2.2049354415861397e-05,428.9609935592404,7.416883362941367,
81,95.88799381256104,0.0042568674966352625,2.1308115741722003e-05,425.2808361073418,7.328666233324661,
82,97.15894722938538,0.004080509757738896,2.042534193791946e-05,423.62649512278483,7.264535710782445,
83,98.43252992630003,0.003952167833109017,1.9782915414978864e-05,419.87498970088603,7.179648769110421,
84,99.71190547943117,0.0038103960969044417,1.9073264817141765e-05,417.3707082744304,7.110477959595674,
85,100.98813939094543,0.003672409219380888,1.838255965439365e-05,413.2641200225316,7.018114305191833,
86,102.26669931411745,0.0035478115746971736,1.7758875446200692e-05,408.7305709468354,6.922330423415504,
87,103.55289721488953,0.0033517164199192463,1.6777304312584123e-05,406.8116070946835,6.849830406160173,
88,104.84087610244752,0.003235580417227456,1.6195975579883035e-05,403.2224991587342,6.770100552240104,
89,106.13606071472168,0.003101048048452221,1.5522562257272507e-05,398.3527046063291,6.667057946507161,
90,107.42649626731873,0.0029481947510094217,1.4757441953214657e-05,395.050100538481,6.583441042408414,
91,108.72083353996275,0.0028236163526244953,1.4133854084022734e-05,391.0648814532912,6.495887073667161,
92,110.01565384864809,0.0026767188425302823,1.3398545984891375e-05,387.51578828784807,6.409900187726633,
93,111.31083345413208,0.0025183331090174966,1.2605732597080244e-05,385.42269684025314,6.343194172303044,
94,112.61436343193054,0.0023960446837146703,1.1993607384763723e-05,380.30868786949367,6.239217454587234,
95,113.92235016822816,0.0022422247644683715,1.1223648572276056e-05,377.10117389746836,6.156811544786785,
96,115.22823572158812,0.00209885733512786,1.0506010595443704e-05,372.59323467075944,6.057227719144574,
97,116.5393772125244,0.0019986473082099594,1.000440070185432e-05,368.3473805094937,5.971196066086589,
98,117.85160279273988,0.0018574772543741588,9.297761876773486e-06,364.5119252081013,5.882190158093542,
99,119.17061448097228,0.0017257761776581426,8.638520829655001e-06,361.3802523073418,5.805852655715422,
100,120.48662281036376,0.0015460552489905788,7.738912290695327e-06,357.44715421898735,5.706788293415663,
101,121.80090856552124,0.0014682335800807538,7.349369245339325e-06,352.1604105982278,5.610132802791721,
102,123.11769556999208,0.001295692193808883,6.4856985222638295e-06,347.5128334373418,5.501950834566154,
103,124.44308757781982,0.0011856746298788694,5.9349961601029064e-06,344.17403535354424,5.42733985631515,
104,125.77446603775024,0.001060258277254374,5.307213839019583e-06,339.42345270848097,5.328117713107866,
105,127.0961217880249,0.0009649959623149395,4.830370142540018e-06,341.42406615354435,5.3368936519683565,
106,128.4492120742798,0.0007349691117092866,3.6789509921436826e-06,334.2094804177215,5.177388863700466,
107,129.7874355316162,7.047173620457604e-09,3.527556933386213e-11,355.1204746954557,5.327242925253811,
108,131.16185998916626,4.26157469717362e-09,2.133188258972023e-11,344.07603154515186,5.161562152125501,
109,132.5452950000763,3.78485868102288e-09,1.8945617022431173e-11,333.6482782767468,5.00513299599306,
110,133.9190993309021,3.660767160161507e-09,1.8324460372793752e-11,322.83337783758225,4.842896237510206,
111,135.2786340713501,3.5542395693135934e-09,1.7791222316193465e-11,312.44296978513927,4.687027387803869,
112,136.6479091644287,3.3391655450874835e-09,1.671464061759551e-11,301.2808052498734,4.519581222970599,
113,138.01767420768738,3.381493943472409e-09,1.6926521058276013e-11,291.1101037988481,4.36700827412085,
114,139.38833689689636,3.188223418573351e-09,1.5959079682073184e-11,281.2217667723671,4.218671084389273,
115,140.7691786289215,2.988694481830417e-09,1.4960310991125177e-11,270.0764404440759,4.051477516715312,
116,142.13676357269287,3.0401749663526243e-09,1.521800341897371e-11,258.9976550179367,3.8852821998930063,
117,143.5381052494049,2.9372139973082096e-09,1.470261856327774e-11,247.83493118008863,3.7178276698291355,
118,144.90256786346436,2.8673620457604307e-09,1.4352965308239559e-11,237.41135960707598,3.561461334938264,
119,146.29219460487366,2.853970390309556e-09,1.4285931591715157e-11,226.9111723022785,3.403945682972538,
120,147.6775894165039,2.7601615074024225e-09,1.3816358723199937e-11,216.02053124437975,3.2405727293451827,
121,149.07622170448303,2.727052489905787e-09,1.365062712254859e-11,204.96966170650632,3.0747961661252896,
122,150.46104860305786,2.710834454912517e-09,1.3569445586457397e-11,194.33265666813926,2.915228080228118,
123,151.85471034049988,2.686877523553163e-09,1.3449525972978556e-11,183.6287244208481,2.754656002634758,
124,153.25025725364685,2.6847240915208613e-09,1.343874668187935e-11,172.9182860894304,2.5939863306843933,
125,154.6444354057312,2.5803499327052487e-09,1.2916287916418036e-11,162.20943471435444,2.433340442232794,
126,156.0590465068817,2.491520861372813e-09,1.2471642158584131e-11,151.0732476073924,2.266283998731028,
127,157.46560835838318,2.5606325706594885e-09,1.2817590032292324e-11,140.79526085355695,2.112101645123399,
128,158.88623666763306,2.4654104979811576e-09,1.2340943254009758e-11,129.55244497982275,1.9434456383115182,
129,160.28845071792605,2.4724764468371465e-09,1.2376312802928031e-11,118.13801766140504,1.772215272788372,
130,161.72092151641846,2.372341857335128e-09,1.1875075766832645e-11,107.19134734184811,1.6080050257831122,
131,163.177387714386,2.4111036339165545e-09,1.2069103006610571e-11,96.20927815617723,1.4432602385603155,
132,164.6322362422943,2.4611709286675637e-09,1.231972152465881e-11,84.48424662243036,1.2673700878708023,
133,166.1010410785675,2.3391655450874832e-09,1.170900731334315e-11,72.59703068583543,1.0890469295995517,
134,167.5896508693695,2.235531628532974e-09,1.1190253929224083e-11,61.340972708379745,0.9201919355106061,
135,169.03765559196472,2.230551816958277e-09,1.1165326818558877e-11,49.92129394444304,0.7488824466360013,
136,170.48204946517944,2.205921938088829e-09,1.1042038676620529e-11,38.72631130641772,0.5809436767637334,
137,171.9807915687561,2.250336473755047e-09,1.1264361555526186e-11,26.388380395683544,0.39585926633335405,
138,173.4189236164093,2.183310901749664e-09,1.0928856120087516e-11,16.908159306696202,0.2536440584588784,
139,174.8694133758545,2.2376177658142665e-09,1.1200696367475729e-11,14.871539586012657,0.22309222332526285,
140,176.31510972976685,2.380820995962315e-09,1.1917519225533962e-11,26.53608873349367,0.39807510553347303,
141,177.76896142959595,2.1614401076716018e-09,1.0819378944870087e-11,26.583550146860762,0.3987870372884398,
142,179.24043130874634,2.299663526244953e-09,1.1511274692252442e-11,26.67719932993671,0.4001919231686502,
143,180.69221234321597,2.2700538358008075e-09,1.1363059439647045e-11,23.229595198924052,0.34847353552539145,
144,182.1547622680664,2.391386271870794e-09,1.1970405122487271e-11,44.94813871718987,0.6742789238280816,
145,183.61418199539185,2.30814266487214e-09,1.1553718150953226e-11,56.19059532584811,0.842929838687111,
146,185.0825433731079,2.382907133243607e-09,1.1927961663785883e-11,68.24341690851898,1.0237372785854868,
147,186.5577621459961,2.3575370121130554e-09,1.18009681405289e-11,79.91587825322785,1.1988388160861916,
148,188.04034233093265,2.3109690444145357e-09,1.1567865970520168e-11,91.17792157518988,1.3677835643582352,
149,189.5746276378632,2.17557200538358e-09,1.0890118042702828e-11,103.07039952173416,1.5461856019910567,
150,191.05225491523743,2.2016823687752352e-09,1.1020816947270549e-11,114.28078384148101,1.7143554167140402,
151,192.56782460212708,2.3053162853297443e-09,1.1539570331386291e-11,125.75955640287341,1.8865476361048716,
152,194.01296377182007,2.2644010767160165e-09,1.1334763800513387e-11,137.18708321694936,2.0579745025350644,
153,195.47873711586,2.2143337819650065e-09,1.108414528247372e-11,147.99879350132912,2.220163365972128,
154,196.92106461524963,2.23835800807537e-09,1.120440174879083e-11,159.45892468939243,2.392079352356255,
155,198.40381574630737,2.1988559892328397e-09,1.1006669127703906e-11,170.63588677816455,2.5597474418366324,
156,199.90484142303467,2.2242261103633917e-09,1.1133662650957167e-11,183.08964979749365,2.7465691209819068,
157,201.3930079936981,2.1818977119784655e-09,1.0921782210304219e-11,194.29735847864558,2.9146984463142163,
158,202.8687243461609,2.1572678331090175e-09,1.0798494068367131e-11,205.84632955110126,3.08794712874989,
159,204.35249018669128,2.2235531628532973e-09,1.1130294122488902e-11,217.0920871144557,3.256647258052585,
160,205.8672876358032,2.1149394347240912e-09,1.0586613627717259e-11,228.53740463491138,3.4283409917413468,
161,207.33990621566767,2.156527590847914e-09,1.079478868705209e-11,240.6837565796962,3.6105511324879447,
162,208.8617408275604,2.2404441453566624e-09,1.1214844187042485e-11,252.2076761291519,3.783424035643115,
163,210.33927059173584,2.076850605652759e-09,1.0395954916418849e-11,264.0786351896455,3.961502900641982,
164,211.82744526863095,2.1664199192462988e-09,1.0844306055534933e-11,275.24514240801267,4.129014183054633,
165,213.3211371898651,2.0930686406460295e-09,1.0477136452501529e-11,287.2258889299114,4.308740014337019,
166,214.8063397407532,2.2242261103633917e-09,1.1133662650957167e-11,298.30868443863295,4.474995528014821,
167,216.3142158985138,2.073351278600269e-09,1.0378438568384455e-11,310.7079985048101,4.661000366995578,
168,217.8337204456329,2.1783983849259756e-09,1.0904265862269402e-11,322.11414708089876,4.832106566252753,
169,219.3441026210785,2.0507402422611037e-09,1.0265256011854894e-11,334.24466903536705,5.014079200059949,
170,220.8463613986969,2.090915208613728e-09,1.0466357161403395e-11,345.46720306317724,5.182430942111754,
171,222.3785002231598,2.1382234185733513e-09,1.0703164712716778e-11,357.0084317587848,5.355563495463798,
172,223.90576171875,2.0225437415881562e-09,1.0124114669040678e-11,369.1847453393038,5.53822306232501,
173,225.4283730983734,2.047240915208614e-09,1.0247739663820615e-11,380.7178722393924,5.7112340737971525,
174,226.95592141151428,0.0010971802826379544,5.492030107023759e-06,343.27843686468356,5.39417777785968,
175,228.440128326416,0.0011841478465679678,5.927353715153332e-06,348.23596940430383,5.487933485394944,
176,229.94386291503903,0.0013175670928667563,6.5951952076373195e-06,353.53380795227844,5.597149128212291,
177,231.44678783416748,0.001501701144010767,7.516894010055572e-06,359.13509571329115,5.722222138339162,
178,232.99594378471372,0.0016709164872139974,8.36391593898294e-06,361.94204881582283,5.802051061362372,
179,234.52086210250852,0.0017985831763122477,9.002962512495468e-06,367.546008571519,5.914576549566093,
180,236.03153228759768,0.0019383811574697175,9.702733309981233e-06,372.75793756860753,6.023925384928427,
181,237.5839638710022,0.002130277927321669,1.0663289067385084e-05,377.90466427683543,6.143909881409584,
182,239.1168088912964,0.002266818371467026,1.1346753983670476e-05,381.5059767713924,6.228371337757245,
183,240.64658761024475,0.00243781399730821,1.2202687270193975e-05,386.5977910350633,6.342872834978206,
184,242.1766653060913,0.002601607469717362,1.3022569559349555e-05,391.0031671124051,6.445471429446017,
185,243.77475023269653,0.0027592053162853293,1.3811439111411847e-05,395.03246881189864,6.5410473309623605,
186,245.30004739761355,0.00294974266487214,1.4765190168955583e-05,400.313854162152,6.662748838089962,
187,246.83952832221985,0.003108792732166891,1.5561328936550838e-05,403.2246391,6.741869349952545,
188,248.3809952735901,0.00325885134589502,1.631246021132841e-05,408.2677814935443,6.850973470222744,
189,249.96408915519717,0.0034523837819650065,1.728120343642198e-05,412.09000143886084,6.951453376478095,
190,251.53625106811523,0.0036389366756393,1.821500996280301e-05,415.72225971822786,7.047527758619036,
